317
315
318
317
312
310
314
315
314
311
313
313
309
303
305
307
306
299
299
301
301
295
293
295
292
284
279
280
279
273
272
277
278
274
272
280
286
288
289
299
306
307
307
317
328
335
334
335
339
343
340
341
346
349
345
343
349
352
351
348
352
352
349
345
348
348
349
344
346
350
349
343
343
346
347
343
341
346
346
343
339
342
344
343
339
341
341
340
336
339
343
340
336
337
340
343
339
338
340
342
342
343
346
343
336
331
335
337
337
332
330
330
331
330
336
340
341
335
336
339
340
336
338
339
337
334
336
342
346
342
338
339
340
334
323
322
324
325
325
331
341
360
387
415
429
436
432
421
406
386
368
353
344
336
327
321
326
328
322
316
318
320
318
312
314
316
316
312
315
316
315
308
307
310
310
306
304
307
307
303
300
304
303
298
292
292
293
291
284
283
282
278
273
276
280
279
273
274
279
284
284
287
297
300
302
307
319
324
324
324
330
336
339
338
343
345
346
341
343
347
348
345
346
349
350
344
344
348
350
347
343
346
348
345
341
343
343
341
336
340
344
342
336
339
341
339
336
338
342
341
335
334
340
342
338
337
341
344
341
336
339
342
343
338
341
343
344
342
344
342
339
335
335
338
336
329
327
330
332
333
335
343
344
341
338
340
341
340
337
342
343
340
337
337
341
342
338
339
341
337
328
322
327
328
327
329
341
365
394
415
432
443
440
419
403
385
370
353
342
334
329
322
321
323
324
319
318
321
322
318
314
316
315
313
311
313
314
313
309
310
312
307
302
304
305
304
299
298
302
302
292
286
287
288
284
279
281
281
275
270
273
274
274
276
282
284
287
287
293
299
306
310
317
325
330
331
333
337
341
340
341
346
348
346
343
348
351
351
344
348
351
351
347
351
352
350
345
344
348
348
347
344
347
347
340
338
342
344
341
337
340
342
340
334
336
340
342
339
340
343
343
339
340
343
344
338
336
342
344
340
337
339
341
339
338
340
340
337
333
335
338
337
331
331
333
331
329
332
337
339
336
334
339
341
338
336
337
336
336
335
341
342
338
334
337
339
337
328
326
327
327
323
325
334
347
370
401
423
435
440
433
420
400
377
358
349
341
333
324
326
328
325
317
317
318
317
314
317
317
315
313
312
313
314
309
307
310
310
307
302
305
307
304
299
301
302
298
293
293
293
288
283
282
282
280
274
272
275
274
270
268
274
280
281
281
288
296
302
306
314
321
326
326
330
334
339
339
343
347
346
341
342
348
350
347
344
346
349
349
344
348
350
347
345
347
346
345
340
342
343
345
340
342
345
345
339
339
342
341
338
336
341
343
339
338
343
345
341
335
336
339
340
338
340
340
339
336
338
343
340
335
335
341
342
335
330
334
334
331
330
338
344
344
339
339
339
339
337
341
343
343
339
340
345
344
339
340
341
339
332
326
328
332
332
327
333
347
374
403
424
435
443
434
418
398
377
359
350
347
341
332
326
325
324
318
316
321
319
317
313
317
317
315
312
316
315
311
305
308
311
310
306
306
305
303
299
297
301
300
297
292
292
289
284
278
279
280
278
273
274
273
272
269
274
280
283
284
290
300
307
312
315
322
328
330
332
338
342
342
341
346
349
351
348
348
350
348
345
348
351
352
347
347
351
352
349
346
348
350
346
343
347
348
346
344
345
343
342
338
340
343
344
340
340
344
344
337
336
340
343
341
339
342
342
339
337
341
342
339
337
343
347
347
342
339
339
337
334
336
336
335
330
330
333
334
332
332
337
338
337
336
339
340
338
335
338
342
342
336
337
339
338
335
338
340
331
320
318
324
325
321
327
345
372
398
413
426
434
428
410
393
378
361
343
336
331
325
317
316
317
317
312
312
314
315
312
311
312
311
309
309
310
310
306
303
305
305
303
299
301
301
297
292
293
293
292
286
286
286
283
278
276
278
275
269
265
270
270
270
271
278
282
285
285
291
299
306
306
311
318
324
323
327
333
335
334
334
338
341
338
336
340
342
341
336
339
342
342
338
339
342
343
341
341
341
339
333
334
338
338
332
331
334
336
332
329
333
334
332
331
333
333
333
330
332
334
335
329
330
333
336
331
331
334
336
334
334
336
337
332
330
335
334
329
328
332
331
328
322
323
323
324
325
332
336
335
330
331
336
338
332
329
334
334
331
331
337
337
334
329
333
331
323
317
319
322
322
319
330
355
386
403
416
432
435
419
399
383
370
352
338
333
328
322
317
319
320
319
314
316
319
317
310
310
311
310
305
307
310
310
306
306
309
306
302
301
305
304
300
296
298
298
294
288
291
290
284
277
277
278
274
268
270
274
275
270
273
281
285
288
292
302
307
310
312
321
328
330
331
337
343
344
341
343
345
345
343
348
351
351
348
348
350
349
346
345
350
351
350
347
349
349
346
342
346
348
348
343
342
347
348
339
341
344
344
342
341
343
345
342
340
344
346
344
341
344
345
343
338
342
346
347
344
346
347
348
342
340
342
341
337
337
341
340
335
331
336
338
339
341
345
344
341
336
340
344
345
340
339
342
343
340
342
346
346
342
343
344
338
329
324
328
329
329
329
341
365
396
415
432
444
439
418
402
388
372
354
344
339
336
331
327
325
323
322
321
323
323
320
315
317
318
317
314
315
317
317
312
313
315
315
310
310
312
310
303
305
307
304
297
294
296
294
288
282
282
279
276
272
276
279
280
277
281
286
290
291
300
310
315
316
322
332
337
339
340
345
346
348
348
350
353
351
346
351
354
355
351
353
356
355
350
350
353
353
350
350
354
354
349
347
350
350
346
345
349
350
347
342
348
351
346
340
343
347
346
342
344
346
346
343
344
347
348
344
343
347
350
348
345
348
350
348
342
342
345
345
339
338
337
338
336
340
344
345
341
340
345
347
344
343
347
347
344
341
346
347
346
342
346
346
344
337
334
335
332
329
331
333
336
351
382
411
424
432
438
434
417
391
368
362
355
348
339
330
330
330
324
327
329
332
333
330
325
319
316
319
322
316
314
317
325
321
312
310
314
318
313
311
310
308
308
303
295
296
298
291
300
292
280
274
270
274
286
283
271
266
280
286
273
274
287
297
299
309
315
315
315
327
339
342
339
346
360
359
344
336
342
356
359
348
349
350
350
351
360
366
369
356
350
362
363
339
333
341
347
346
349
345
350
342
337
347
346
332
330
346
354
344
335
342
349
354
336
325
329
345
340
331
324
322
326
339
345
348
338
335
348
347
330
320
338
346
338
326
332
339
335
316
321
335
336
315
321
341
350
335
337
343
339
324
328
348
358
338
320
334
342
334
321
334
343
346
328
330
339
342
321
314
325
337
343
376
407
424
414
413
427
412
368
342
352
351
329
311
332
333
314
291
324
342
331
293
311
329
330
301
312
330
331
298
304
326
325
295
289
323
331
303
278
313
326
305
271
300
317
306
272
296
313
309
267
276
299
302
267
274
305
304
270
267
305
322
305
288
327
343
332
310
347
364
356
320
349
369
366
330
351
376
374
334
342
370
371
338
332
369
378
349
328
367
374
350
323
358
373
360
321
348
368
369
323
340
366
363
321
331
366
367
332
325
357
362
340
323
357
370
351
317
349
368
355
315
343
368
359
317
338
364
368
327
331
362
365
329
321
354
358
331
316
353
361
336
309
343
352
341
307
341
365
356
315
336
361
356
316
324
356
360
327
325
354
361
335
318
350
354
328
298
327
343
332
296
335
387
416
394
421
453
451
403
392
398
381
332
318
344
345
314
292
328
338
318
287
321
338
325
291
317
331
324
285
307
331
330
288
295
322
324
288
286
319
320
288
273
309
314
288
259
291
304
289
253
281
297
286
245
266
289
291
253
264
295
300
268
278
320
323
293
279
317
337
325
302
338
355
344
314
345
362
354
320
343
365
363
327
339
366
361
323
326
365
367
329
309
343
355
338
311
345
353
337
305
337
357
348
309
332
353
350
314
332
354
349
312
317
357
363
325
309
347
354
329
306
346
359
338
306
338
355
347
309
334
357
349
309
330
359
360
320
313
344
352
324
311
341
347
319
295
335
350
334
304
339
356
346
309
333
354
350
313
329
358
356
314
315
347
353
325
317
350
350
319
297
334
348
331
297
340
385
404
381
424
456
443
380
378
391
378
327
319
342
341
307
298
334
338
310
286
325
337
315
282
316
333
301
257
282
306
300
252
266
297
298
255
259
299
310
277
267
310
326
303
283
331
350
333
299
334
358
351
311
341
366
362
318
335
367
369
325
327
361
369
334
324
361
370
340
317
358
368
344
308
343
362
350
308
337
362
356
311
329
360
361
317
324
358
362
322
313
354
362
331
310
351
363
341
305
342
362
349
307
337
364
358
311
330
361
362
318
321
356
364
325
311
344
351
320
300
343
358
338
306
344
364
349
307
337
361
356
313
333
361
359
314
323
356
362
322
311
344
350
316
293
332
347
332
316
380
426
425
396
432
446
423
358
363
377
365
313
318
348
347
304
299
336
343
308
287
327
339
315
280
317
334
321
280
310
332
324
278
301
329
328
281
289
319
321
281
279
316
320
282
260
297
306
277
246
285
301
282
242
276
299
292
251
281
314
316
275
291
328
339
303
306
348
358
325
310
352
366
341
316
355
369
353
315
348
369
360
318
344
370
370
325
338
367
370
328
327
362
368
332
317
355
362
335
309
350
368
351
309
341
361
352
309
336
361
358
312
330
362
363
321
323
360
365
326
312
351
363
336
310
349
364
345
307
341
360
350
309
339
363
350
301
319
354
359
315
315
353
361
325
312
350
359
332
308
347
362
341
304
340
362
352
309
337
362
355
305
319
345
346
300
303
341
362
352
371
429
451
428
399
425
420
381
329
351
360
341
294
320
344
338
292
309
338
338
294
300
334
338
299
289
326
335
302
278
318
330
309
273
307
324
311
267
295
320
314
266
285
314
312
263
266
299
302
261
250
287
297
268
247
287
301
281
254
297
319
312
277
314
343
342
301
324
356
357
315
325
360
365
325
319
361
370
337
317
356
370
347
315
353
371
355
315
348
369
359
312
335
365
363
317
327
359
365
324
317
355
362
329
309
348
361
338
306
346
364
347
305
339
364
354
309
335
364
363
317
327
358
360
317
316
356
364
328
308
348
361
334
304
341
355
336
297
333
355
348
306
332
360
360
313
324
354
357
318
316
354
362
330
314
353
364
336
304
338
351
329
292
328
344
333
297
348
408
429
395
421
453
442
377
356
380
377
333
311
342
349
320
291
328
340
318
281
316
337
325
280
310
336
333
288
302
328
330
287
288
324
330
294
279
314
323
294
266
301
315
295
256
288
306
296
247
272
298
292
246
263
296
299
257
263
303
313
281
275
319
337
314
293
337
357
338
305
344
365
353
312
343
370
365
321
342
368
368
325
331
364
369
334
324
362
371
340
314
355
369
347
312
349
368
355
313
344
366
359
312
332
362
363
318
324
360
366
326
319
357
368
337
314
352
364
341
309
345
360
348
310
344
366
356
309
331
359
357
311
317
352
360
323
315
354
363
331
310
352
367
343
310
347
365
351
311
341
363
356
312
333
360
358
309
314
345
352
312
304
344
365
359
373
430
453
436
401
423
421
386
330
349
364
351
299
317
343
343
298
307
340
345
303
296
331
339
305
287
326
335
309
277
318
333
314
275
309
329
320
276
299
323
317
271
282
314
314
271
264
297
302
266
250
289
298
273
245
288
307
290
254
293
320
317
279
313
345
346
306
323
358
361
321
321
362
369
334
319
360
371
343
314
353
369
352
313
349
371
361
317
343
367
362
315
331
363
367
324
323
358
367
331
315
352
363
337
309
347
363
344
307
341
362
350
306
336
360
357
313
330
360
362
316
318
355
364
328
317
356
364
335
308
349
365
343
306
341
362
348
301
325
348
345
301
320
355
360
318
322
356
360
323
312
350
360
333
309
348
362
339
304
340
361
348
302
327
347
342
297
315
343
349
317
349
413
435
410
406
441
436
386
344
369
370
339
298
331
347
332
290
319
340
334
289
310
337
336
292
298
332
338
297
288
323
331
300
278
319
330
305
270
305
322
309
267
297
318
308
258
277
304
303
258
263
296
301
261
253
294
304
273
255
300
317
300
274
318
340
330
294
329
355
350
308
332
361
363
321
332
364
368
328
325
364
373
340
320
362
375
348
314
351
369
353
312
343
365
358
313
338
365
363
316
325
358
364
322
317
353
363
331
313
351
363
337
310
349
364
346
307
341
363
355
310
335
363
362
315
326
358
363
322
322
358
364
329
311
350
363
336
305
342
354
335
297
332
357
351
307
332
358
356
312
325
358
362
319
318
357
366
329
313
350
362
334
306
340
349
329
292
326
344
334
298
350
409
431
399
423
453
444
381
364
384
373
327
307
342
349
317
288
326
341
320
281
316
337
325
280
308
334
331
285
300
328
330
288
290
325
329
291
277
316
325
293
268
302
312
292
256
289
307
292
244
271
297
292
244
262
296
300
257
262
301
312
281
275
320
335
312
292
336
352
333
302
343
366
356
314
345
370
364
317
335
366
368
324
330
365
370
332
322
360
368
336
311
352
366
345
312
346
363
350
310
342
365
359
312
331
359
359
316
323
357
363
325
316
354
363
333
310
350
364
342
309
348
365
351
309
340
364
356
310
332
359
360
316
322
357
361
319
308
345
355
324
303
344
360
340
309
346
364
348
307
338
361
355
311
334
362
362
317
325
356
360
317
306
342
351
319
297
333
346
334
333
404
441
439
405
430
437
408
343
352
369
360
309
314
345
346
304
299
336
343
308
288
327
338
311
279
318
335
317
278
312
334
325
277
301
327
326
278
288
319
322
280
274
308
314
279
258
294
302
276
244
282
298
281
241
275
300
295
255
282
313
316
277
297
335
341
307
307
345
354
326
315
357
368
342
314
352
369
351
314
349
372
364
317
345
372
369
322
335
366
369
324
322
358
366
333
318
358
368
337
309
348
361
339
305
343
364
354
310
335
363
362
316
330
360
360
317
322
359
361
321
306
349
366
339
313
350
363
343
305
336
353
343
302
329
359
360
316
329
358
361
320
319
354
365
334
320
353
364
337
311
348
364
345
307
332
349
339
300
324
348
345
312
352
413
438
408
420
452
447
391
356
377
377
343
312
342
348
325
291
322
337
324
288
316
337
332
290
306
333
332
292
297
327
332
296
284
319
329
302
276
308
318
298
265
296
311
295
260
289
310
300
252
266
292
294
256
261
291
297
263
258
298
312
289
275
315
334
320
294
332
355
348
313
341
363
359
319
337
362
362
324
331
362
368
333
328
365
371
341
319
353
366
346
315
349
368
355
318
341
361
358
318
334
358
361
320
324
353
360
325
320
353
358
330
318
355
366
343
312
347
363
348
308
337
359
354
314
333
359
362
321
329
356
360
325
321
353
360
328
310
345
355
331
304
343
361
346
311
338
357
348
308
332
360
361
316
321
353
358
320
315
351
342
346
351
350
345
343
344
346
341
340
345
344
342
340
346
342
338
335
343
347
343
335
342
346
340
331
331
334
337
335
336
341
344
342
339
342
344
341
339
346
351
346
340
342
344
344
338
340
343
339
328
325
333
334
328
331
354
386
414
425
437
443
435
414
395
379
364
347
337
332
328
320
322
324
322
318
317
321
321
314
314
318
318
313
310
315
316
312
306
306
306
304
300
306
308
302
294
295
297
294
285
285
287
286
279
274
275
277
273
269
273
276
274
275
284
288
289
292
301
308
314
318
326
333
338
335
338
344
348
345
344
350
352
348
345
352
355
351
346
351
353
352
351
353
352
347
343
345
348
348
346
348
348
344
339
339
343
344
342
337
340
342
341
340
342
343
339
334
338
343
342
333
334
338
338
334
337
342
343
339
341
347
347
339
336
342
348
347
340
340
343
343
338
341
338
333
327
332
336
333
328
337
368
400
416
429
445
443
426
401
385
372
358
343
339
332
325
320
323
323
322
318
320
321
321
316
316
320
320
315
309
312
315
310
305
309
310
306
303
305
305
303
296
298
299
295
288
286
288
288
280
277
277
277
277
274
273
276
276
279
286
292
294
299
308
315
318
319
328
338
339
334
338
343
347
345
343
350
355
352
346
348
350
353
355
354
348
343
340
346
348
349
347
347
346
344
340
341
346
347
340
337
343
341
337
337
343
345
341
338
343
342
339
335
339
342
342
334
332
333
334
333
337
343
344
340
341
345
343
338
336
343
346
346
342
341
341
340
336
340
339
333
326
331
335
331
324
333
360
394
418
430
439
440
426
407
392
379
359
342
336
332
324
317
320
322
321
318
320
322
320
316
316
317
316
313
311
315
317
315
311
309
305
301
298
303
303
301
298
300
297
293
285
285
286
284
277
276
279
278
273
270
279
284
281
275
279
286
292
299
310
317
319
318
325
333
336
333
339
345
348
344
344
349
351
346
345
351
354
348
343
345
349
347
342
345
348
348
343
345
346
343
337
341
346
346
339
337
340
341
337
337
341
342
342
340
340
341
341
341
345
343
340
333
335
338
340
334
336
339
335
329
332
343
347
338
335
339
341
337
336
343
344
342
339
343
344
344
341
346
347
338
326
327
331
333
328
325
328
343
368
398
421
435
440
432
420
403
380
358
350
343
335
325
324
327
325
319
320
321
320
314
313
316
317
313
311
315
316
312
308
311
312
312
309
309
305
301
296
300
304
300
292
291
290
287
278
279
283
281
275
271
274
277
273
272
279
285
286
287
298
305
308
309
318
329
334
331
340
345
344
342
343
347
349
346
346
349
350
350
346
348
350
349
344
347
348
348
344
345
347
346
341
342
344
344
339
342
350
352
344
336
337
339
338
337
342
343
336
331
337
341
341
336
338
343
341
336
336
336
334
331
333
340
342
341
340
341
340
339
338
342
344
342
339
340
342
343
338
342
344
340
331
329
330
334
333
329
328
335
356
386
418
430
436
437
433
413
389
369
360
349
338
329
329
330
323
313
316
323
322
316
315
317
313
309
308
315
316
313
309
311
313
308
302
303
305
303
296
300
301
296
290
290
289
287
282
281
287
285
272
266
272
277
276
272
277
280
283
284
293
300
306
309
319
328
332
333
334
337
340
338
342
349
351
346
343
348
350
348
347
354
353
349
342
345
350
348
342
346
351
349
344
344
346
346
343
343
345
343
339
337
341
344
343
339
344
343
339
337
342
342
342
341
342
344
342
337
340
343
345
340
339
341
340
341
338
340
338
333
326
332
336
338
339
343
345
342
337
340
340
339
334
339
345
345
340
338
340
340
337
331
331
331
326
322
324
328
334
349
382
413
425
429
431
423
409
387
374
362
347
332
326
326
328
323
319
319
321
319
312
313
316
315
308
314
319
318
308
307
309
309
305
306
308
306
300
298
304
305
301
298
296
294
291
286
284
282
280
276
280
283
282
276
274
279
285
285
290
298
301
299
304
315
324
327
328
337
339
337
335
341
344
345
344
348
353
355
350
348
349
347
344
345
349
351
343
341
342
345
345
344
346
348
343
339
343
346
343
337
339
342
347
341
340
340
340
335
334
338
340
339
340
342
343
340
338
342
344
343
335
339
342
342
338
341
341
340
339
340
341
339
331
328
331
336
336
336
338
337
336
335
341
344
342
337
341
343
341
337
339
342
344
341
340
338
333
328
324
327
328
327
335
364
396
414
422
434
435
419
396
383
370
354
337
333
331
327
321
321
323
320
317
320
326
324
314
314
318
315
308
306
312
314
311
307
309
310
307
301
301
303
303
298
296
298
297
289
287
290
291
286
279
281
282
279
277
275
279
281
278
286
293
298
300
306
311
318
321
327
335
339
338
339
344
346
342
341
348
352
350
346
349
352
354
349
349
346
343
343
347
348
349
345
343
347
346
341
341
346
347
345
343
344
344
339
338
344
344
338
336
340
336
336
336
340
347
347
338
336
341
342
338
338
342
344
339
338
344
345
341
338
340
343
340
329
333
337
333
326
330
337
340
336
338
341
342
338
336
339
341
338
336
340
345
339
335
342
343
340
335
337
334
327
319
319
323
328
337
359
392
411
419
429
435
424
401
377
366
354
341
329
330
330
324
316
320
324
323
314
314
320
317
309
311
313
312
308
306
312
313
309
305
306
308
305
298
301
302
300
295
296
298
294
287
285
284
284
282
278
275
276
273
273
276
280
280
281
288
296
299
301
312
321
326
322
330
335
341
341
343
346
348
342
343
350
354
348
344
348
352
349
343
348
348
347
343
347
350
352
344
345
346
343
338
341
346
345
339
338
343
345
342
337
340
341
341
339
341
341
338
337
344
344
340
335
339
344
342
337
341
343
343
339
340
346
344
335
335
341
342
336
331
337
341
337
331
331
330
330
328
334
340
342
336
336
339
343
339
337
340
342
338
336
342
345
344
341
343
341
333
321
321
328
330
320
323
334
360
390
409
423
437
435
421
404
388
371
353
343
336
326
320
324
327
325
317
317
316
316
310
311
312
314
310
311
314
314
309
310
316
311
300
298
305
303
298
298
299
297
294
289
291
291
287
281
284
287
281
274
280
285
281
273
280
282
280
280
289
301
316
316
316
317
325
335
341
347
342
336
333
336
340
343
340
335
339
342
325
321
328
331
328
325
333
335
332
329
333
334
335
333
338
342
342
328
329
342
346
331
320
325
335
341
339
332
328
328
331
342
347
342
332
339
341
335
329
335
342
340
324
321
334
349
345
334
329
337
343
334
334
333
326
320
331
337
332
320
323
330
334
320
317
323
335
331
330
334
337
330
324
328
335
329
318
330
342
335
322
331
336
331
315
328
330
321
304
305
318
346
365
393
414
428
421
410
404
382
354
334
343
344
329
310
322
327
329
308
315
327
323
297
303
318
320
294
304
325
324
286
287
320
324
293
279
314
322
298
274
309
319
304
272
300
309
293
251
274
294
288
253
263
291
295
259
261
295
301
273
265
307
319
304
288
326
338
327
300
334
354
349
310
336
364
366
326
340
369
368
332
334
365
366
334
319
360
369
339
312
354
370
357
321
348
364
357
319
344
364
360
322
332
360
362
331
331
366
369
337
318
353
365
344
318
352
366
354
319
351
370
358
317
339
366
366
323
331
364
367
331
322
354
361
331
310
346
361
346
318
347
362
351
318
348
368
358
318
339
366
365
325
332
363
363
320
311
347
353
325
303
336
356
361
363
424
453
454
416
430
432
400
342
349
363
351
308
314
343
343
306
299
336
340
311
291
327
336
317
287
319
334
319
281
311
333
325
282
298
325
324
281
284
317
319
285
270
300
305
281
258
290
298
278
247
280
293
281
246
279
305
304
262
280
313
318
288
296
329
341
317
309
346
356
334
313
348
360
342
311
346
363
351
312
336
361
361
322
337
360
358
320
321
355
357
323
314
350
355
331
306
343
353
336
303
337
356
346
301
326
349
348
307
319
349
352
316
313
345
350
321
310
342
349
326
299
336
351
335
303
334
352
342
299
323
348
349
310
318
345
343
304
301
339
344
311
295
334
345
325
303
339
351
335
298
325
345
339
302
325
346
341
302
318
347
340
295
289
324
332
303
290
339
375
381
368
417
440
421
366
377
386
360
302
315
334
331
289
297
325
327
290
287
321
326
298
278
311
319
298
270
301
314
302
264
292
313
311
271
288
308
303
263
274
303
303
266
259
293
294
263
242
280
288
268
235
267
283
272
235
264
288
288
254
281
311
316
282
295
330
338
307
303
343
351
321
303
343
355
335
308
343
356
345
308
335
357
351
309
326
356
358
314
317
352
355
318
310
347
355
330
309
346
354
333
301
336
355
346
307
332
349
344
305
324
352
351
311
314
347
351
319
309
347
356
330
307
344
356
341
310
343
354
345
305
331
356
353
308
321
352
353
310
308
339
342
313
307
347
354
326
307
347
358
337
305
341
357
343
302
331
352
348
307
323
356
356
313
308
342
346
312
297
337
353
354
361
424
277
284
291
295
297
307
315
320
321
328
333
337
336
341
345
346
343
343
346
346
344
342
348
350
349
346
349
349
349
345
349
349
347
341
344
348
347
342
341
344
344
340
339
344
344
341
339
342
342
341
338
341
342
341
337
340
343
344
339
341
345
343
338
338
343
343
340
339
341
341
339
336
337
336
333
330
334
337
337
337
343
343
342
337
337
340
343
339
339
342
343
340
339
342
342
340
338
337
333
329
327
332
331
327
327
347
380
409
417
430
437
428
405
382
368
356
346
339
337
332
324
321
322
321
319
316
318
318
317
312
314
316
315
311
311
313
313
308
306
309
309
303
300
304
305
299
294
296
296
292
285
286
286
282
274
273
274
275
270
270
273
276
273
276
285
291
293
298
308
314
316
318
328
336
338
336
340
342
342
340
342
347
349
345
346
349
349
347
346
350
352
350
349
350
350
347
343
346
348
346
343
346
347
343
339
342
346
344
338
339
343
343
337
336
340
342
340
338
342
344
342
337
340
343
343
340
343
344
342
338
340
340
338
334
336
341
340
333
330
333
334
332
331
338
342
339
335
339
341
340
337
340
341
340
337
339
341
340
336
336
340
340
330
326
327
327
326
322
327
334
353
380
408
421
430
427
419
405
384
365
354
345
336
325
322
325
324
320
318
320
320
316
314
318
318
313
308
312
313
311
308
310
310
309
303
303
305
304
299
299
302
300
294
290
291
289
285
281
282
281
279
274
277
279
275
271
276
280
282
282
287
296
304
306
312
322
327
326
326
332
336
337
336
342
346
345
342
345
346
347
343
347
349
348
341
343
347
348
344
343
346
346
341
338
344
344
341
338
339
341
339
337
341
342
342
337
337
339
341
336
335
338
340
335
334
340
341
336
335
341
343
340
337
341
342
341
336
338
341
340
337
340
339
337
333
336
338
336
329
327
331
333
331
332
338
341
338
334
336
337
338
335
339
342
340
334
336
340
340
335
336
338
335
327
324
326
326
321
320
330
350
376
400
417
431
432
420
405
387
369
350
340
335
330
323
323
324
322
317
316
317
318
316
314
316
315
312
308
311
312
311
307
308
310
310
303
304
306
306
299
299
301
300
295
290
290
288
283
279
282
281
276
272
274
276
276
273
276
283
289
288
294
302
307
309
315
325
331
331
331
337
341
342
342
345
344
343
342
346
347
347
342
346
351
349
346
348
349
348
342
341
343
346
344
342
343
344
341
338
341
342
340
337
339
341
338
334
337
340
340
336
336
340
343
340
339
340
340
337
335
339
341
339
338
342
343
340
336
340
342
341
335
338
339
340
336
335
336
334
329
328
332
333
333
334
340
342
339
335
338
340
338
334
339
342
340
336
338
341
342
336
336
336
332
324
322
324
322
320
326
350
381
402
414
430
435
424
403
387
375
360
342
333
329
327
322
323
323
322
317
316
319
320
315
312
315
318
314
310
314
314
312
307
310
309
306
302
304
306
306
299
297
299
297
291
288
289
288
284
280
281
281
276
272
274
277
278
275
283
288
290
289
299
309
315
318
324
332
336
336
337
343
344
343
342
348
352
349
347
350
352
349
347
350
352
352
347
348
351
351
347
347
351
350
344
343
348
350
346
344
344
344
342
341
343
345
344
338
342
345
344
338
341
344
345
340
340
344
343
339
339
345
345
342
339
344
345
342
338
342
343
341
335
339
342
342
338
338
337
335
330
331
336
338
338
340
345
343
339
336
342
344
340
336
340
342
342
337
342
345
343
336
335
334
331
327
328
331
328
323
327
352
384
404
415
433
436
421
398
383
370
358
343
338
335
330
324
324
326
326
322
320
321
319
315
314
317
317
315
312
314
315
313
307
310
312
311
306
309
309
306
301
299
302
300
294
290
291
288
281
277
279
279
275
271
274
279
279
276
282
288
292
294
303
311
318
319
325
334
338
336
338
346
349
346
344
348
349
347
346
351
353
352
347
349
353
352
348
349
353
354
349
347
348
349
346
347
350
349
344
341
345
346
343
339
342
342
342
340
345
347
344
337
339
344
344
339
340
344
345
340
341
345
346
341
338
341
343
341
337
340
342
340
337
338
337
335
330
332
335
337
337
340
344
343
339
338
340
342
340
337
341
342
343
340
344
345
343
338
340
338
333
325
326
328
326
322
330
358
390
409
420
435
437
421
400
383
369
354
341
337
333
328
321
321
324
324
318
318
320
318
313
314
317
317
312
311
314
314
309
305
309
310
308
304
306
305
302
296
296
298
299
293
290
289
286
279
278
278
280
275
272
276
278
276
275
284
288
292
295
305
313
316
316
323
330
335
335
340
345
347
343
343
346
348
347
346
350
352
350
347
350
352
350
345
349
352
350
343
345
348
348
345
345
347
347
343
341
344
344
342
340
343
343
340
339
343
344
341
337
341
344
343
338
341
345
345
339
340
343
344
340
339
343
344
341
340
343
343
342
339
343
344
342
336
338
341
341
336
337
337
335
329
330
334
337
337
338
340
340
338
337
341
340
337
334
339
341
339
334
338
340
339
333
334
333
328
322
321
324
326
327
336
362
390
405
416
431
430
415
392
378
366
352
336
332
332
327
319
320
322
321
316
316
319
318
314
310
314
314
311
309
312
314
312
305
307
309
307
301
303
304
302
297
298
299
299
291
287
288
286
280
276
279
279
274
271
275
277
276
275
284
291
292
292
301
309
316
317
322
329
333
332
336
341
343
341
344
349
348
345
343
349
351
347
342
347
351
349
341
342
347
347
341
344
351
351
345
343
341
342
346
344
342
341
346
345
341
339
348
345
340
360
365
351
337
351
348
328
323
320
325
330
332
342
341
335
332
342
343
332
329
333
334
331
326
335
342
342
332
328
338
350
343
329
337
343
346
351
340
330
327
332
341
344
341
335
342
339
333
326
335
344
350
344
342
340
340
339
345
344
331
313
311
326
332
324
325
349
378
407
415
425
433
426
391
366
364
364
337
334
339
322
302
297
305
315
308
299
304
302
298
296
309
323
316
295
305
313
309
286
298
306
309
293
291
302
307
286
277
295
300
282
277
293
295
287
272
278
284
275
256
269
282
277
258
272
293
298
274
281
302
317
309
311
328
336
325
329
346
349
336
325
345
350
340
326
346
350
345
320
347
367
359
322
339
361
360
329
334
361
363
334
326
355
362
344
326
356
366
342
312
341
351
342
316
347
360
355
321
337
360
361
328
329
359
363
334
327
358
365
340
318
352
362
345
318
347
363
350
319
344
364
363
324
335
359
363
329
327
352
353
325
321
356
358
333
315
352
363
343
317
343
357
350
316
339
358
360
328
346
366
362
327
327
352
345
315
308
345
350
324
307
356
393
404
390
431
452
431
381
386
390
379
334
336
351
348
314
310
335
341
315
301
332
338
317
293
322
332
318
288
316
333
327
291
309
323
317
281
293
325
328
292
286
310
312
283
272
304
305
277
252
286
295
277
247
277
294
282
248
274
301
303
272
289
321
330
304
305
337
346
324
318
352
365
345
317
351
367
358
327
355
366
355
320
344
368
368
329
335
361
364
335
334
364
368
341
322
354
362
341
315
344
359
347
317
342
358
351
313
328
350
355
321
331
357
358
323
319
352
361
332
310
342
359
338
310
339
351
344
314
338
353
345
310
326
346
345
311
320
350
355
327
322
355
361
333
312
350
360
336
305
333
349
338
306
331
351
349
312
321
338
335
302
311
336
341
322
339
401
427
410
346
349
348
341
344
344
341
338
343
346
345
337
337
341
345
341
341
344
345
341
340
344
344
343
338
342
345
345
340
339
341
343
340
343
346
344
338
340
344
343
337
334
336
336
332
330
334
335
333
329
333
339
342
337
339
341
341
338
339
343
341
336
338
344
344
338
336
342
344
343
333
329
327
325
321
323
328
337
354
384
408
422
430
431
426
408
383
367
356
344
331
326
327
326
323
320
324
324
320
315
317
321
319
312
312
317
314
307
309
308
308
303
306
310
309
305
301
304
306
298
290
295
299
296
286
286
283
276
270
274
275
273
268
272
278
281
280
278
285
296
303
317
326
330
330
329
335
339
338
336
344
347
346
341
343
349
350
345
346
352
353
344
343
349
352
349
347
349
348
344
339
342
345
346
341
342
342
340
336
341
343
341
336
336
340
341
337
336
340
340
336
335
339
341
338
335
340
343
339
333
336
341
343
338
339
342
342
335
335
340
341
336
335
339
341
336
334
340
343
337
330
334
338
335
329
330
330
330
328
333
338
340
336
334
335
336
334
334
337
339
338
334
337
339
337
334
338
340
336
326
325
327
327
322
319
320
328
347
379
404
417
426
426
419
400
375
359
353
346
336
325
325
325
321
315
315
317
316
312
313
316
314
308
308
312
311
306
306
311
311
304
298
300
303
301
297
299
299
296
290
289
289
288
281
279
278
276
271
272
274
273
267
265
270
275
275
277
286
293
296
299
309
317
320
321
330
334
336
335
339
344
345
338
338
341
343
341
342
346
347
345
342
344
346
347
341
342
343
342
338
341
342
340
336
338
342
338
332
333
337
339
334
332
336
338
336
333
337
339
337
331
334
338
337
332
333
336
335
330
331
335
336
332
332
337
337
332
330
333
334
331
329
331
332
329
323
325
328
326
319
323
330
333
329
329
333
332
327
328
331
333
329
328
331
332
329
327
330
331
324
317
318
318
317
310
313
321
341
367
395
410
421
419
409
395
375
356
342
336
327
317
309
311
311
309
305
307
308
306
301
304
305
302
297
298
303
303
297
295
298
297
292
289
294
295
292
289
288
286
281
278
281
282
277
271
270
270
267
261
262
263
264
261
264
270
273
273
276
283
290
294
297
307
315
317
316
323
331
332
327
330
334
335
332
334
338
339
336
336
340
341
337
335
338
339
337
334
337
337
334
330
335
336
335
329
333
336
335
329
331
334
335
330
328
332
333
331
329
333
334
331
329
332
335
335
331
336
338
335
327
330
334
335
330
332
336
335
332
334
338
338
333
330
335
336
331
328
333
332
328
321
324
327
327
326
332
337
337
332
334
338
338
334
332
336
338
334
331
336
337
334
332
336
336
329
322
324
328
328
324
330
343
370
390
406
423
433
426
412
397
382
363
347
340
332
326
321
325
325
323
318
321
323
321
316
319
322
321
315
315
317
315
311
311
314
312
308
306
310
310
307
301
302
303
301
296
298
296
293
287
287
287
285
279
280
284
285
281
282
286
288
289
292
302
311
315
318
326
334
337
336
341
347
349
352
356
361
362
349
342
361
369
362
359
373
377
370
341
338
347
339
330
335
346
349
346
346
348
350
353
356
345
338
335
337
345
347
342
341
347
347
348
351
356
349
346
354
366
368
359
356
368
376
374
357
353
361
370
351
333
341
347
346
336
340
339
335
335
356
367
346
322
337
353
350
325
330
349
354
339
337
344
349
343
351
358
346
332
329
351
359
342
329
349
357
347
325
336
353
352
323
329
343
343
316
332
354
374
377
407
438
450
421
406
421
410
373
342
363
361
339
312
338
350
341
309
330
345
343
312
322
332
335
308
316
339
335
302
297
332
336
311
295
328
336
315
287
312
326
316
285
310
323
314
272
283
304
303
271
275
297
297
267
263
300
311
291
275
310
326
318
301
341
358
344
312
342
366
366
331
349
373
377
344
343
368
373
344
337
366
369
351
338
370
377
358
330
361
377
368
332
354
374
369
333
347
367
367
333
332
361
366
339
328
363
366
342
324
361
367
349
321
352
370
361
327
351
370
366
327
343
364
365
335
337
365
369
337
327
362
370
343
320
353
364
345
317
346
362
349
311
335
361
363
328
343
368
366
327
323
352
358
334
325
356
363
342
323
359
371
357
324
344
351
339
304
331
352
347
327
369
420
440
418
415
435
427
378
351
370
367
339
313
344
353
336
303
327
339
331
296
316
338
338
301
312
336
334
295
294
329
336
307
294
322
325
302
279
309
322
310
276
299
312
304
268
289
307
293
251
266
296
295
255
254
292
304
274
262
301
314
298
282
322
341
330
304
337
357
352
320
345
368
360
320
337
368
371
336
333
365
375
345
332
365
373
351
328
360
368
351
322
353
367
355
322
346
367
360
321
332
357
358
327
326
357
360
334
320
356
364
342
318
351
363
347
315
346
365
357
318
335
358
359
324
332
357
360
330
324
355
359
333
317
348
352
330
305
340
354
346
316
342
356
350
314
338
364
358
319
331
356
359
327
322
352
357
325
309
342
347
325
301
336
350
340
324
382
423
427
401
429
444
428
371
362
374
364
324
315
339
340
313
300
334
342
318
288
320
332
320
286
313
329
322
286
305
331
330
287
293
323
326
294
287
314
319
295
276
304
310
292
266
294
303
286
250
276
296
291
255
269
291
292
260
272
305
310
285
285
322
337
317
302
336
349
336
312
345
359
349
320
342
361
359
324
343
370
362
325
332
360
366
335
324
355
363
338
318
348
361
344
316
346
363
352
316
340
361
354
312
328
356
356
322
322
346
350
327
323
354
356
331
310
341
357
345
319
344
356
346
315
336
352
349
317
332
350
353
323
326
348
349
323
314
343
346
323
306
338
346
330
307
340
352
344
309
331
347
344
310
323
350
355
322
319
342
350
325
316
348
353
326
303
332
339
318
292
328
362
384
378
411
444
447
399
391
391
381
340
333
350
345
314
301
330
339
317
289
318
332
316
286
313
325
317
289
312
331
326
286
293
317
319
288
288
319
323
294
277
306
311
291
272
299
300
282
254
283
300
293
253
267
288
288
255
267
298
303
275
276
310
324
304
295
331
342
324
304
342
359
348
319
341
357
355
325
346
367
366
332
339
364
366
333
330
356
359
337
323
351
362
342
318
348
363
351
319
341
360
357
321
339
355
351
317
327
354
357
328
325
349
352
326
311
345
359
342
316
341
353
342
312
339
359
355
318
333
354
351
320
330
354
353
320
315
344
351
326
309
340
349
332
305
332
351
343
311
334
353
348
314
333
355
352
318
329
355
357
323
315
346
352
321
298
329
337
320
293
320
336
341
341
391
422
431
406
416
421
403
352
340
354
340
343
343
336
338
340
339
328
324
328
329
326
325
326
338
361
388
404
422
435
432
418
396
375
360
352
344
335
324
322
325
324
320
320
321
321
316
315
317
316
311
309
313
314
311
306
310
311
307
301
304
306
304
297
299
301
300
292
292
293
290
281
279
281
280
272
269
273
275
272
272
280
287
288
286
295
304
309
308
320
330
334
332
338
342
342
339
341
346
349
346
345
350
351
347
344
350
352
350
346
349
351
349
344
347
351
351
344
344
345
345
340
340
345
344
338
336
342
344
341
338
341
343
339
336
341
344
342
337
340
343
342
336
337
342
341
334
332
334
334
330
329
336
342
343
339
344
346
344
337
338
341
343
338
342
343
342
337
338
342
344
337
331
332
331
330
328
331
334
346
373
408
428
434
437
435
421
399
374
363
357
348
335
331
330
327
320
317
320
318
313
312
318
318
313
309
313
314
311
308
311
311
309
303
304
307
304
298
299
301
300
293
292
295
292
285
279
281
283
277
271
274
275
272
270
276
282
284
283
291
300
307
309
315
324
328
326
329
336
342
342
341
345
347
348
345
349
351
350
345
349
352
350
344
348
350
350
344
347
353
352
345
343
346
347
344
340
345
346
344
342
346
344
339
334
340
343
342
337
338
342
342
338
339
343
344
340
339
344
347
346
343
343
343
337
333
338
342
338
331
331
333
330
327
335
340
340
339
340
341
342
340
342
348
348
348
344
340
346
343
341
353
354
333
318
320
328
333
341
353
352
381
411
433
442
436
427
405
376
357
349
345
336
327
321
317
319
311
306
299
302
306
302
297
302
309
308
297
293
300
308
304
301
308
309
312
307
307
312
295
282
283
285
289
283
288
290
286
275
281
288
281
272
284
301
289
270
253
264
274
274
276
295
307
307
300
316
327
325
319
338
355
359
332
322
334
343
331
333
349
347
331
324
344
351
340
328
341
350
347
332
335
344
353
336
330
340
346
326
323
342
349
331
323
341
346
330
321
342
350
338
323
340
347
341
318
331
345
343
322
335
353
353
319
326
347
351
323
319
342
351
330
317
344
348
327
311
342
354
341
316
342
360
352
318
338
356
355
322
337
361
358
326
334
361
355
327
322
343
344
322
303
334
346
343
341
401
436
439
415
437
446
420
361
361
371
362
320
316
346
349
316
303
338
346
321
300
332
332
313
286
320
337
325
284
308
327
327
291
304
328
329
295
294
320
322
293
280
312
312
284
259
292
306
288
254
284
298
286
249
275
302
299
262
278
314
324
292
297
336
345
315
308
346
357
337
314
352
367
350
319
352
370
361
321
347
370
368
331
346
374
374
334
330
365
367
336
325
363
370
338
313
349
364
347
311
341
363
357
318
337
359
356
320
333
361
362
325
323
353
359
332
320
353
360
340
317
352
366
350
315
338
354
345
310
335
355
351
310
322
349
347
315
319
356
360
327
310
350
364
344
314
344
357
344
309
341
361
352
310
329
352
346
303
314
344
347
306
306
361
398
395
390
443
457
425
376
386
387
359
316
340
354
343
300
317
338
336
296
302
330
335
304
296
325
326
298
283
319
330
310
282
311
324
312
278
304
320
312
270
285
310
310
270
274
301
299
265
257
291
296
267
247
280
293
277
253
288
307
300
274
304
324
325
295
317
345
350
316
323
354
360
329
326
362
368
342
326
361
372
352
322
355
367
350
313
338
359
354
317
337
362
362
324
329
360
363
325
317
355
364
334
313
346
359
340
309
341
354
343
311
339
360
357
317
336
360
356
319
325
354
359
326
318
352
356
328
307
345
355
333
302
334
357
349
316
340
360
355
317
333
353
354
323
330
363
364
323
311
346
354
328
299
330
342
328
302
330
348
355
352
405
441
446
412
416
422
404
352
343
363
357
316
304
332
338
314
294
326
336
318
287
317
332
319
283
309
332
328
289
304
330
329
288
286
316
322
292
280
311
314
286
268
300
306
282
251
284
303
293
251
271
290
285
250
264
295
304
273
278
315
323
298
293
284
283
280
272
273
275
276
273
275
277
279
279
282
293
300
303
306
315
320
323
325
333
339
340
337
342
345
347
341
344
349
350
345
345
349
351
346
343
345
345
344
344
349
349
344
337
342
343
342
337
341
344
342
337
339
340
339
335
336
340
341
336
335
340
343
340
336
338
341
339
335
339
342
342
336
337
338
336
331
333
335
336
330
329
335
338
338
336
341
344
341
336
340
341
339
336
340
342
341
338
341
344
340
329
325
328
332
331
326
326
335
356
385
411
423
431
428
421
404
381
359
352
347
340
331
329
328
324
315
316
321
320
315
313
316
316
313
309
311
313
310
305
307
309
309
302
305
307
307
300
300
300
297
289
289
291
288
283
280
280
277
272
269
273
274
273
270
276
281
283
285
294
304
310
311
320
331
335
331
333
340
342
341
343
346
345
345
347
350
350
349
347
350
351
351
348
350
351
350
345
346
350
349
342
340
346
347
342
344
345
342
338
338
343
345
342
336
337
340
341
337
341
343
343
337
338
342
342
337
337
340
340
339
335
336
333
332
330
335
336
335
334
338
341
340
337
339
342
340
335
338
343
343
336
335
341
343
339
335
332
330
325
322
327
325
324
331
362
396
418
424
435
438
422
397
377
368
355
341
332
330
327
321
318
319
319
315
311
315
316
312
308
311
312
310
307
310
314
311
304
303
305
304
298
294
298
299
295
291
292
291
285
280
285
284
278
271
273
275
272
269
272
274
277
276
281
290
298
298
303
311
317
319
323
331
336
336
335
339
339
339
338
339
341
344
343
346
349
348
343
343
345
344
340
341
345
345
340
337
341
341
338
335
338
340
337
332
335
336
337
334
338
337
335
331
333
337
338
335
335
339
341
337
335
338
339
336
334
338
338
335
332
333
332
327
322
325
330
332
333
337
341
342
336
334
337
336
333
333
339
342
341
335
336
339
335
330
329
326
323
318
320
322
325
331
357
392
414
421
430
434
422
399
377
365
352
340
328
328
325
320
313
314
317
319
314
314
317
316
312
313
313
311
307
308
312
312
306
304
306
306
302
298
300
301
299
294
295
293
291
287
287
287
283
275
274
275
278
276
275
279
281
281
284
293
298
300
304
314
322
327
326
333
339
341
337
338
343
345
342
345
348
348
345
346
351
351
347
345
349
350
347
345
347
347
346
340
344
344
345
340
344
349
346
338
337
343
345
342
341
344
343
339
337
339
340
339
334
338
345
343
336
340
345
347
340
339
341
341
336
334
335
334
332
334
339
342
341
340
344
344
341
336
342
345
341
335
338
341
340
340
344
346
345
339
335
333
330
326
325
325
327
337
365
404
425
432
436
432
417
397
376
366
356
346
333
329
329
327
320
321
325
325
320
317
317
317
315
314
316
317
314
310
314
316
311
305
309
310
307
301
300
303
302
297
296
297
295
288
283
285
285
281
277
279
280
279
277
280
284
288
287
295
302
305
306
317
329
334
332
333
339
342
342
343
349
349
347
347
351
353
350
346
350
352
353
350
351
353
353
347
347
351
352
347
345
349
349
346
345
348
346
340
337
342
345
342
337
342
344
344
341
343
343
342
337
339
343
346
343
343
344
341
335
336
341
338
333
330
334
339
339
338
344
345
344
338
338
342
342
339
341
347
346
341
341
345
346
341
335
333
332
329
326
330
335
342
362
398
420
430
438
442
429
406
380
365
354
344
332
326
327
328
323
321
324
323
320
318
322
319
316
312
315
317
314
311
312
314
314
306
307
310
310
304
300
302
302
297
294
297
295
289
286
287
284
279
276
277
278
278
275
279
284
289
286
291
300
308
309
315
325
330
332
332
340
344
345
343
350
353
351
346
348
350
350
348
351
352
351
346
347
352
355
351
349
351
349
344
342
348
350
347
344
346
347
346
341
343
346
344
339
343
345
347
343
343
345
345
342
340
344
344
342
340
343
342
339
336
340
339
338
337
343
347
347
342
346
348
347
343
345
347
345
341
338
344
346
344
341
339
336
331
326
332
332
332
337
366
400
420
428
440
443
432
409
388
375
361
342
330
331
330
326
322
326
325
322
318
319
320
317
313
316
319
317
312
311
313
314
309
308
312
312
306
302
306
306
302
297
297
295
291
287
288
287
282
274
274
275
277
274
275
280
281
280
286
296
301
303
308
318
326
328
329
338
346
346
342
345
346
345
343
347
350
354
349
350
352
354
348
347
350
351
348
345
348
349
347
344
349
351
349
346
348
345
339
335
339
342
343
339
340
342
343
341
340
339
340
340
339
342
345
340
335
339
342
340
333
334
336
336
332
335
340
340
339
342
344
344
341
340
342
342
339
340
345
346
342
339
341
340
334
327
332
336
332
322
327
347
378
403
421
436
443
430
412
395
377
359
346
342
337
331
324
321
322
321
318
322
321
321
316
317
318
315
309
312
314
314
309
309
312
312
308
303
304
306
302
298
300
298
291
286
288
287
286
280
281
281
279
274
273
277
279
277
280
287
292
294
298
308
316
319
321
331
337
337
335
341
348
349
345
346
349
350
349
349
351
352
348
349
352
353
350
348
351
351
346
342
348
348
346
343
346
346
343
340
344
346
345
339
339
344
341
335
336
340
345
344
341
339
338
336
336
342
343
338
329
333
339
339
334
339
345
346
342
343
346
344
339
337
343
345
342
342
346
346
342
339
344
343
335
326
330
336
336
329
334
359
393
415
428
442
446
432
411
394
375
357
346
343
339
331
324
326
327
325
321
322
324
322
316
316
316
313
307
308
313
317
313
309
311
311
307
304
308
309
304
299
302
302
297
288
288
288
286
277
277
280
280
274
274
278
282
280
283
290
298
303
306
314
320
323
324
333
338
341
340
346
349
350
346
347
351
351
345
347
353
356
350
349
353
354
351
347
350
351
348
344
348
347
345
342
346
347
347
341
343
346
347
340
340
345
346
343
341
345
345
341
340
345
345
343
338
341
346
346
342
343
344
342
339
341
343
340
332
332
335
336
334
336
342
345
343
340
342
342
341
339
344
347
347
342
341
341
342
338
340
338
331
324
324
327
327
329
342
374
406
422
430
440
438
423
398
383
372
356
336
328
330
329
322
321
325
322
317
315
317
316
314
314
317
315
312
310
312
313
311
306
310
311
308
301
301
302
301
298
299
302
297
287
285
286
285
280
276
278
280
276
273
280
284
283
282
289
295
300
303
311
318
322
324
329
334
338
337
340
347
350
347
346
348
348
347
344
347
350
349
345
346
347
344
340
344
349
349
344
344
343
343
339
341
346
346
343
339
341
341
340
338
341
341
337
334
339
342
341
335
337
340
343
341
341
342
340
336
336
341
341
337
336
340
338
332
327
331
332
331
330
337
342
341
336
338
340
338
334
340
343
343
338
335
337
339
339
340
341
336
327
321
326
327
324
322
337
368
400
415
430
441
438
419
398
379
364
348
334
330
327
320
317
321
320
316
313
319
319
316
311
314
314
312
307
310
312
310
305
304
306
307
304
301
302
301
296
289
290
292
289
286
287
286
282
274
275
276
273
269
272
275
276
274
277
283
289
294
303
312
318
319
320
329
335
336
336
340
344
343
339
343
347
347
346
349
352
349
342
341
345
348
345
345
348
348
343
338
342
344
341
338
340
341
340
337
342
344
342
336
337
340
341
337
336
339
340
338
337
341
342
339
337
340
341
339
337
341
340
340
337
340
341
338
334
335
336
334
328
327
331
333
331
332
340
342
338
334
334
338
336
332
335
340
340
334
334
336
337
333
334
332
327
322
321
324
320
318
326
357
392
411
422
435
431
414
391
377
362
347
331
327
326
321
314
313
316
314
309
308
312
311
306
304
306
305
303
300
304
305
303
297
300
301
300
293
293
293
291
288
289
288
285
277
274
276
275
269
263
265
266
265
264
269
271
271
270
278
286
291
292
300
309
313
313
319
325
330
329
331
336
336
334
335
337
338
338
337
341
342
339
335
337
339
338
333
335
337
339
336
336
337
334
331
331
334
334
332
329
331
332
329
325
328
332
332
326
330
336
335
328
329
329
330
327
329
333
333
328
326
328
326
322
324
330
329
325
321
323
325
326
326
332
335
334
329
332
334
332
327
327
333
333
330
329
334
335
331
328
329
326
321
316
322
324
319
316
334
367
398
410
423
434
427
404
384
371
359
345
334
329
322
314
311
314
314
310
305
310
313
313
307
307
307
304
300
303
304
304
301
300
303
303
298
297
297
297
293
289
290
290
288
280
279
280
277
270
268
269
270
266
269
274
275
273
277
285
291
292
297
308
317
321
324
331
335
335
332
338
344
346
342
343
347
347
344
344
347
348
345
346
351
351
345
341
345
348
347
343
346
346
343
338
343
346
346
341
343
346
345
340
343
344
343
341
339
344
346
343
341
343
346
344
340
344
346
346
342
346
349
346
339
340
343
347
342
342
342
338
337
340
341
337
334
333
336
337
338
341
346
348
347
342
344
344
344
340
343
347
347
344
344
347
349
344
341
339
335
328
326
331
335
340
351
383
412
426
433
439
434
416
392
378
369
357
343
335
335
332
327
324
330
333
328
324
325
324
321
317
321
323
320
316
317
317
315
310
313
315
315
310
310
313
312
305
301
304
304
298
295
297
292
286
282
284
287
286
282
285
290
291
289
296
306
311
312
317
326
333
335
338
344
346
345
345
352
354
354
351
356
358
356
351
356
358
357
352
354
358
359
352
352
356
356
353
352
355
355
351
348
352
354
352
347
346
348
348
344
347
348
347
343
345
350
352
346
342
345
346
343
345
351
351
347
344
349
352
353
349
348
348
348
347
350
351
345
340
343
345
343
337
336
338
338
336
338
345
349
349
345
347
348
346
341
346
351
350
344
345
348
348
343
346
349
344
334
329
333
334
330
332
349
374
402
421
439
450
444
425
411
396
378
357
348
342
337
330
328
330
328
322
320
323
323
320
318
321
322
319
314
317
320
316
312
315
316
313
307
308
312
310
301
298
299
301
296
295
298
297
287
281
282
282
279
275
280
285
284
280
284
290
296
297
305
313
320
321
330
337
339
337
340
346
348
347
346
353
357
353
347
350
353
353
351
355
356
356
352
355
356
354
347
348
353
351
345
344
349
352
349
346
348
347
343
340
344
346
346
342
346
349
347
343
345
347
348
345
344
347
347
343
342
348
349
345
342
346
347
343
339
342
346
345
340
342
344
344
336
335
337
337
334
338
344
346
341
339
341
342
343
341
343
346
344
339
344
346
343
338
342
345
340
329
328
332
331
323
321
333
356
384
409
426
439
439
425
409
391
373
356
350
341
333
325
326
327
324
320
321
323
319
314
312
315
316
312
309
311
313
311
307
309
308
306
302
304
306
304
296
296
300
298
291
291
292
289
280
275
276
274
272
271
273
274
275
275
282
287
290
292
300
309
316
318
325
331
334
333
336
342
343
341
342
347
349
348
347
350
350
349
349
354
354
352
347
348
349
350
344
346
348
350
346
344
346
346
341
339
341
339
338
338
343
344
341
335
338
340
339
335
341
344
343
339
341
344
341
337
340
345
346
340
335
338
342
339
334
335
333
332
330
336
341
343
339
341
342
341
337
340
342
340
337
340
343
344
340
339
343
341
336
329
330
332
332
329
332
337
352
376
409
428
438
438
433
420
397
373
359
351
343
332
327
327
328
323
316
319
318
316
313
317
319
317
311
312
315
314
307
308
311
312
305
304
305
305
301
299
302
302
295
289
291
290
287
282
282
279
276
272
276
277
277
273
276
281
286
289
293
301
306
310
314
322
329
332
333
338
341
342
342
350
351
347
342
345
348
347
344
344
348
349
347
346
348
348
344
344
347
347
343
339
344
344
343
339
341
343
341
339
340
341
340
336
338
341
341
338
338
342
343
339
337
341
343
340
335
337
338
338
335
339
342
341
337
338
337
336
330
333
337
338
333
330
329
329
328
327
332
335
334
332
336
338
336
331
334
337
336
333
334
335
336
332
332
334
334
328
323
321
321
319
318
327
338
357
387
415
429
435
426
416
399
379
359
345
336
327
318
315
316
315
310
306
308
309
308
305
307
306
300
294
298
303
302
297
299
301
301
294
293
294
294
291
290
291
291
284
278
279
280
275
270
270
272
271
265
267
268
267
264
268
273
278
280
286
293
298
297
303
313
319
321
323
329
333
331
328
334
338
338
335
336
337
338
336
340
340
338
335
335
338
338
335
335
337
335
332
329
332
335
332
330
333
335
334
330
332
335
334
328
329
333
334
328
330
334
336
334
332
334
333
328
327
331
336
334
333
338
341
339
335
335
335
334
331
332
334
332
323
320
325
327
326
330
336
338
335
332
336
336
335
331
334
337
337
334
337
340
338
332
333
333
329
321
324
328
328
329
338
365
396
418
428
441
441
427
405
387
373
358
342
333
327
323
318
318
321
322
319
317
317
314
308
310
317
317
312
308
311
311
310
306
307
307
306
301
303
304
302
295
297
298
295
286
284
287
287
282
279
282
280
273
270
276
279
279
279
286
294
299
300
308
314
321
325
332
340
343
340
342
349
351
346
344
351
353
351
349
354
356
353
348
352
356
357
350
351
355
356
351
352
352
350
346
347
353
355
351
349
354
351
348
346
350
351
351
349
352
352
347
341
348
352
359
365
367
366
360
349
350
359
367
363
357
359
361
356
349
350
344
340
336
340
337
333
336
352
349
335
332
344
355
355
350
354
356
345
338
338
345
340
335
326
329
333
337
339
338
334
347
385
426
440
457
447
419
407
396
381
365
350
341
337
330
332
334
334
332
328
323
324
329
340
333
324
317
310
315
319
314
311
312
315
314
305
312
320
315
301
307
316
312
289
292
300
293
282
285
285
279
264
261
273
283
275
278
290
287
276
280
303
317
312
310
324
333
330
326
343
356
352
328
336
357
361
343
347
360
363
350
338
350
356
348
336
357
361
344
332
351
361
356
336
347
357
352
329
338
357
361
325
328
347
351
328
332
354
356
326
322
351
355
331
315
358
367
341
313
346
363
352
318
346
363
352
306
320
347
354
326
330
354
353
324
318
356
365
338
318
353
360
344
315
349
365
348
307
328
347
344
312
329
353
359
342
376
434
447
426
419
446
434
387
347
370
371
347
311
338
349
333
293
321
342
334
290
304
332
334
297
296
331
340
308
290
323
330
306
283
323
331
310
276
307
321
311
272
296
312
303
257
270
304
305
260
254
286
290
262
254
292
301
282
260
304
323
315
285
324
349
345
309
336
361
362
320
328
362
367
335
335
370
376
343
327
366
369
345
320
355
369
354
320
351
367
358
320
342
366
363
324
335
362
363
328
322
356
362
330
312
350
361
338
308
345
362
350
312
341
360
355
313
334
357
355
318
330
358
358
320
315
348
352
322
304
343
352
333
307
345
359
347
311
343
359
352
314
338
367
363
320
326
357
361
325
315
345
345
314
292
331
347
333
319
384
428
430
401
435
448
425
363
365
377
364
313
310
341
344
307
296
334
337
309
286
324
335
314
281
316
335
322
278
306
324
317
275
295
324
323
285
288
319
317
279
269
308
313
281
255
292
302
280
241
272
291
285
245
273
299
296
259
281
314
316
279
288
330
337
306
298
343
356
334
312
349
361
343
309
346
366
354
312
340
366
360
317
333
364
362
322
322
358
363
330
314
353
363
337
309
346
356
337
301
335
355
348
308
334
355
351
311
326
355
355
315
312
348
354
323
310
349
356
332
305
339
352
336
298
332
352
341
298
322
346
343
302
318
354
355
313
310
349
355
322
304
345
355
329
299
337
354
340
303
330
345
334
293
317
341
339
303
339
404
427
405
411
446
437
388
349
375
370
333
293
327
339
322
282
315
337
327
282
303
328
328
286
293
326
328
289
281
317
322
294
275
310
315
295
263
304
319
300
258
288
307
298
252
267
293
292
249
253
286
291
254
243
280
292
268
250
293
310
296
269
313
336
328
288
321
352
354
314
333
359
358
317
323
359
365
330
320
355
363
339
314
352
364
344
309
346
364
354
314
341
362
356
314
332
358
355
315
320
354
360
327
315
354
362
337
309
348
361
342
304
339
359
349
306
333
358
353
310
329
359
358
317
321
360
359
321
306
346
355
329
303
344
358
343
311
348
367
354
310
336
365
360
312
324
355
360
323
322
355
352
317
297
336
345
326
296
338
381
400
380
427
462
455
394
385
392
383
324
326
353
349
311
301
340
344
316
289
333
355
316
275
313
336
328
294
327
330
316
292
303
315
327
306
299
320
304
268
265
301
306
284
276
301
305
291
272
277
280
281
271
283
293
296
295
293
287
289
289
296
329
339
325
313
338
344
335
340
359
361
352
340
355
368
365
358
364
359
370
362
352
362
359
347
351
374
367
345
331
345
361
359
344
350
365
359
345
348
361
370
353
345
347
351
333
331
344
352
344
334
351
340
329
334
357
368
352
328
336
353
352
340
350
363
354
330
326
331
343
338
320
323
346
348
343
342
341
337
335
344
347
342
337
351
368
362
334
333
330
330
325
336
343
341
337
345
362
377
395
409
426
437
430
413
402
394
382
359
349
347
340
327
326
328
335
320
305
314
316
313
332
348
344
332
306
306
323
318
313
314
290
284
299
308
315
314
303
283
281
284
280
287
294
288
270
269
301
329
296
250
246
265
271
282
285
283
266
257
309
328
301
275
280
319
348
351
335
336
342
350
371
394
398
329
274
288
333
329
323
325
324
322
331
359
377
367
353
338
340
336
342
425
443
367
271
267
284
328
366
374
362
320
272
259
310
364
362
308
309
350
385
339
299
320
353
331
343
370
337
317
308
303
335
366
314
283
306
348
347
343
338
308
318
291
309
342
318
302
316
332
330
321
330
335
325
322
332
336
328
314
325
330
328
314
314
311
307
303
312
320
317
311
315
331
367
392
411
437
436
423
416
392
362
358
350
331
315
306
283
295
318
327
321
322
325
315
306
314
322
317
307
312
320
326
318
317
320
315
316
320
313
296
285
282
288
293
309
291
277
300
320
305
297
292
287
286
286
285
284
280
282
291
296
300
301
310
333
342
345
361
363
355
347
338
341
355
364
354
355
370
380
374
368
355
343
354
371
360
357
360
363
373
375
371
375
368
367
363
359
354
344
343
352
353
335
318
321
340
350
337
327
348
356
334
331
324
334
347
342
324
313
314
317
333
323
308
303
297
309
337
349
348
337
328
292
273
284
302
302
289
265
268
290
316
332
313
308
310
298
284
282
269
266
272
263
263
263
254
255
257
234
231
250
262
250
247
268
284
293
304
323
340
321
304
265
247
250
241
237
243
217
201
193
186
148
155
196
220
206
186
190
181
179
164
187
201
167
127
144
215
250
200
169
159
169
188
176
205
220
170
146
182
182
179
182
103
39
79
144
202
203
185
184
202
204
151
122
175
184
182
191
221
247
234
217
204
214
268
359
330
262
200
213
229
255
264
219
227
269
294
312
294
311
294
300
308
335
268
260
321
334
234
228
272
317
333
274
269
332
332
272
227
290
385
411
366
364
357
359
339
330
365
366
376
447
468
407
375
380
396
387
373
335
349
369
370
393
433
453
438
419
405
416
430
408
390
402
414
432
458
462
468
471
484
511
516
519
499
496
547
577
607
620
622
622
649
652
654
654
654
654
655
654
655
655
654
654
654
654
654
653
652
650
641
620
590
573
543
533
538
528
507
511
528
531
519
499
488
487
486
480
479
470
455
446
449
460
473
456
442
437
436
421
417
407
394
385
389
383
370
371
370
370
371
388
400
390
386
385
387
386
394
390
391
399
396
394
397
402
409
405
396
385
378
368
369
378
379
373
365
352
368
391
392
385
356
342
333
352
358
348
347
354
351
329
334
337
348
343
328
312
321
348
344
341
322
312
352
363
297
290
296
294
313
311
320
313
266
243
294
328
259
230
278
293
312
333
320
219
182
240
279
299
285
255
236
231
245
255
293
278
268
237
222
209
203
212
211
219
225
230
260
307
301
301
309
302
268
232
207
218
222
228
212
194
190
194
202
210
203
180
174
183
185
185
151
158
193
204
174
151
164
188
198
198
203
213
224
224
214
207
212
216
217
228
232
218
214
225
212
197
210
236
226
213
224
239
253
265
260
249
237
244
271
289
297
317
305
299
294
301
304
310
310
322
334
334
311
297
296
300
313
326
358
368
359
347
340
323
310
325
346
352
342
346
344
344
337
340
346
330
330
333
332
330
336
349
352
334
327
339
342
334
328
334
335
335
325
331
334
345
353
346
338
334
338
340
350
347
344
349
358
351
345
342
351
353
346
347
367
375
370
353
356
367
370
368
360
360
358
357
354
365
361
359
362
369
374
388
412
438
454
461
453
443
431
415
401
389
383
374
369
367
364
362
361
355
360
357
352
351
362
360
357
348
352
355
354
346
346
349
350
345
345
347
348
340
337
339
341
340
330
327
326
323
316
318
321
320
309
307
314
315
317
317
321
328
334
341
347
352
352
359
372
373
369
370
377
379
382
379
383
386
386
386
390
391
390
387
391
394
392
390
392
393
392
392
386
387
386
384
383
389
388
387
381
387
390
386
380
385
388
385
380
379
381
381
377
377
387
391
386
379
378
382
378
377
380
382
377
374
377
378
374
370
372
374
371
369
377
384
383
380
379
381
381
381
380
377
380
375
372
378
382
379
374
378
376
369
360
360
366
366
360
364
379
406
427
439
456
466
458
437
421
409
393
376
366
360
355
353
356
356
353
347
348
350
349
341
341
345
345
339
335
335
335
334
332
334
333
334
329
332
329
326
323
323
320
315
310
309
310
306
298
296
298
296
288
286
288
291
291
298
305
308
308
309
320
328
333
334
341
343
347
349
353
355
356
355
359
364
360
354
353
357
356
350
351
358
360
358
354
356
358
357
355
355
358
356
348
347
351
349
343
345
348
348
343
341
345
343
343
341
344
344
342
337
338
344
344
338
340
344
346
339
338
342
341
335
335
339
340
330
326
331
334
333
333
339
338
337
340
343
344
341
337
340
345
342
335
338
344
345
341
342
344
338
327
323
329
328
324
322
341
370
394
404
421
434
430
411
393
375
362
346
338
334
329
322
321
321
323
320
318
317
317
313
305
309
318
318
310
310
309
308
304
307
308
306
299
299
302
302
296
291
292
291
285
282
284
282
279
275
278
274
268
263
267
272
276
274
277
282
289
290
296
304
309
314
320
329
332
330
330
335
339
340
336
339
341
341
340
344
347
345
339
339
341
342
339
341
342
341
338
336
340
344
341
336
338
340
334
329
335
339
337
335
333
336
334
328
329
336
334
327
329
332
333
332
334
337
336
331
330
337
339
334
331
331
332
331
328
334
332
327
323
326
326
328
329
335
337
335
333
332
336
337
334
329
334
337
336
331
334
336
335
329
326
322
318
313
319
321
324
328
348
382
404
417
429
430
418
396
374
363
350
335
325
326
325
319
313
316
318
315
312
313
315
313
309
309
309
306
303
306
310
310
307
302
303
303
301
299
301
300
292
288
292
292
288
281
279
281
278
273
273
275
275
271
270
277
281
278
278
287
295
299
301
312
320
324
325
331
335
336
335
338
345
345
342
344
344
345
345
346
351
348
347
347
349
348
345
343
347
346
343
340
343
345
344
340
338
340
339
337
338
338
338
335
332
336
338
337
336
337
340
339
336
338
340
340
337
339
340
338
334
335
340
340
333
331
335
337
337
333
330
328
326
326
331
335
335
333
336
338
338
337
339
340
339
334
337
339
340
336
335
340
340
335
329
328
327
323
319
318
320
327
343
377
403
417
426
434
427
408
379
361
351
343
332
324
325
328
325
319
322
319
313
311
316
316
313
310
312
312
310
308
310
314
311
303
302
305
305
302
299
301
298
293
289
288
288
285
280
280
282
279
270
270
271
275
274
278
280
281
280
286
295
303
303
309
319
325
325
328
334
336
336
337
344
347
345
342
347
349
348
345
345
349
349
346
344
347
351
349
346
346
347
343
340
343
342
341
339
343
347
344
338
340
343
344
341
343
346
344
342
342
346
346
343
338
341
344
342
338
344
347
345
341
342
346
343
336
338
339
336
330
335
342
343
342
343
344
342
339
339
342
343
339
341
344
346
344
339
342
345
344
337
335
334
333
328
328
328
329
340
369
402
418
424
429
427
412
392
375
365
355
345
333
333
332
327
318
320
323
322
317
317
319
320
316
313
314
313
312
310
315
314
311
306
308
309
304
298
300
303
302
294
295
296
291
283
281
282
281
274
270
274
276
273
271
278
284
283
285
293
299
304
308
317
324
331
333
336
340
342
341
344
349
350
343
345
350
352
350
348
351
353
351
347
352
354
352
347
349
348
344
342
349
351
347
339
340
344
347
341
340
344
344
340
337
340
342
339
336
342
344
345
342
344
345
341
337
341
347
345
338
338
342
339
335
335
338
337
333
331
336
339
338
337
340
340
340
340
343
345
343
339
342
345
345
340
341
347
344
335
328
330
333
331
325
325
328
345
376
410
426
434
434
426
412
390
367
356
347
339
330
330
330
327
323
321
322
320
314
311
318
320
317
311
314
316
314
310
314
314
311
303
304
309
308
301
302
305
302
294
291
293
289
284
283
286
283
279
273
278
279
279
279
283
286
289
290
296
304
308
310
320
330
331
331
334
343
349
344
343
346
350
348
343
351
352
348
343
345
348
347
343
344
347
346
346
348
349
344
336
340
353
361
356
342
337
329
331
331
339
345
339
329
332
339
344
338
333
340
344
337
339
347
342
336
331
344
333
333
336
347
335
332
333
353
363
341
310
317
333
340
339
345
338
332
328
331
336
335
339
329
329
330
343
346
350
352
344
345
350
345
317
302
309
322
344
352
357
323
328
386
424
421
422
416
380
365
377
373
334
316
336
350
348
331
309
285
282
310
324
307
304
305
302
328
335
314
298
297
290
301
328
303
289
293
306
306
293
277
309
318
299
289
285
262
268
269
256
282
278
262
272
282
292
306
304
288
263
255
279
315
330
324
307
306
316
321
327
330
329
329
340
342
350
348
355
381
369
342
328
325
338
359
335
325
317
333
339
331
336
326
331
335
330
344
358
342
310
311
363
389
368
320
293
316
337
329
320
325
324
357
355
318
313
341
365
351
330
339
338
356
380
351
315
326
335
320
324
296
314
327
316
305
314
311
327
358
361
334
325
338
336
349
347
332
325
326
336
349
355
337
327
323
308
306
306
308
323
353
360
379
415
448
441
409
381
369
362
356
353
368
350
344
342
334
327
296
275
281
312
352
348
328
296
270
281
297
315
323
317
304
301
301
315
323
295
286
300
297
285
286
280
283
326
356
306
245
224
235
255
275
264
253
246
264
282
276
276
302
300
311
320
330
318
345
378
326
293
296
314
335
343
326
348
332
320
328
349
352
344
336
331
336
340
356
372
388
387
347
302
295
306
328
367
387
370
316
278
286
314
325
331
336
342
374
375
354
337
320
316
306
314
331
388
405
326
276
290
316
353
329
317
324
335
340
354
343
331
317
330
353
382
349
305
298
304
320
349
365
342
319
315
339
355
360
344
330
303
314
332
327
333
335
335
356
393
421
409
396
404
413
403
380
369
352
344
333
328
329
338
328
325
312
308
308
316
327
342
317
287
300
315
314
298
289
300
321
317
308
291
290
305
328
319
284
275
290
291
310
313
266
249
270
265
255
255
264
278
286
295
289
267
257
279
308
320
323
328
317
307
320
334
331
334
342
350
359
353
344
348
349
361
359
340
323
333
342
347
355
367
362
339
330
346
356
357
348
343
345
343
344
349
362
357
347
335
330
330
335
342
343
337
334
340
343
340
338
346
342
337
335
336
342
342
336
338
338
334
338
333
330
328
331
339
344
349
348
339
338
339
336
336
345
342
338
336
343
341
335
336
338
333
331
329
328
327
326
336
370
406
422
435
439
435
414
390
370
362
355
340
332
335
331
324
317
318
322
326
323
320
318
312
310
313
319
316
309
309
316
317
311
305
305
304
302
301
304
306
301
293
292
294
294
283
281
290
286
277
274
278
278
276
274
283
289
284
286
297
304
309
312
323
331
332
332
340
346
345
340
343
350
351
346
349
353
353
352
347
349
353
351
350
356
356
352
345
347
349
348
345
346
345
339
339
347
350
347
342
336
339
345
346
340
340
340
344
346
346
343
342
339
339
339
339
336
339
344
340
331
330
333
335
334
339
346
346
343
340
348
350
344
337
339
343
346
339
338
341
342
341
343
345
340
329
327
331
331
333
338
365
397
418
424
435
437
426
403
384
371
359
344
337
339
334
325
322
325
321
319
321
319
317
313
311
315
319
315
314
314
313
309
308
308
307
308
302
301
304
308
305
301
298
292
284
280
285
287
282
277
281
280
276
270
271
278
287
286
289
295
300
302
311
319
327
325
327
336
341
340
340
348
349
345
343
350
355
347
344
347
349
351
349
350
351
351
346
349
349
347
343
343
347
344
340
340
346
347
341
337
341
342
341
336
340
341
339
337
337
337
339
339
340
339
340
335
334
336
336
332
329
330
335
336
339
340
342
341
336
338
340
340
341
344
342
337
333
339
344
345
339
334
331
329
325
323
327
330
336
361
396
418
431
434
430
421
403
378
366
353
339
327
328
334
327
315
314
321
321
315
312
317
318
314
310
314
315
312
308
314
309
309
302
306
308
305
302
303
307
297
291
284
285
288
287
279
285
278
274
269
275
275
275
275
278
276
279
277
282
301
312
318
321
322
327
328
340
352
357
352
342
345
348
346
342
348
346
343
348
368
369
362
358
347
343
345
339
344
347
350
345
343
340
343
353
337
335
346
357
359
357
345
333
331
335
341
334
313
320
339
337
343
345
346
344
334
317
311
313
316
318
335
342
348
346
338
328
325
337
346
345
338
328
333
333
336
332
329
335
338
345
338
315
311
318
328
321
336
384
430
432
419
412
408
393
389
377
346
337
337
345
325
318
343
322
294
299
320
327
306
291
316
338
319
288
286
292
311
321
310
301
304
306
295
290
309
315
294
282
285
286
280
291
290
268
269
271
266
264
259
279
281
272
266
285
296
274
265
287
304
329
315
305
331
347
328
322
329
331
349
366
369
384
357
335
316
316
328
342
332
324
337
349
365
366
352
338
327
337
350
359
343
331
336
345
334
345
342
331
323
336
352
340
323
323
351
349
315
313
326
343
332
327
352
365
329
312
319
335
338
321
314
330
342
339
338
352
342
326
336
357
358
326
318
333
336
330
331
337
326
314
325
335
335
330
342
329
323
360
391
414
407
409
418
423
409
361
333
335
340
343
328
305
305
321
318
317
323
312
304
311
320
318
316
300
311
319
300
295
298
300
308
307
307
294
289
276
277
285
288
285
285
283
291
280
284
294
282
261
263
274
269
267
279
272
261
262
277
298
313
320
341
354
335
319
309
317
341
338
334
336
347
337
333
345
361
347
341
334
363
387
343
308
327
362
355
342
325
317
323
328
341
341
334
331
336
348
339
336
334
334
336
339
340
348
334
323
318
322
332
333
331
336
337
335
331
328
333
335
336
334
342
345
337
327
332
344
346
339
334
336
340
338
335
341
344
332
323
321
326
329
329
329
337
361
397
424
434
436
429
418
403
385
364
352
349
343
329
323
328
327
318
314
316
315
314
316
318
317
316
310
313
318
315
305
308
310
308
302
304
306
304
296
299
302
300
293
289
289
283
278
278
283
282
275
270
272
273
274
274
282
289
290
292
298
307
315
315
323
333
336
334
336
342
344
344
340
348
348
346
345
351
357
354
347
349
351
348
344
347
351
351
344
341
347
348
346
345
348
350
346
341
342
343
344
341
343
345
343
337
338
343
346
340
341
344
346
343
342
345
344
339
338
342
340
336
333
335
338
337
332
337
341
347
342
344
344
340
338
344
345
344
340
339
345
345
343
341
345
342
332
327
330
329
326
324
336
365
400
417
423
436
435
418
401
388
371
355
344
340
337
331
322
324
326
322
315
317
321
317
313
318
318
316
312
314
317
315
308
306
311
309
305
304
306
306
300
295
297
294
290
287
288
286
282
277
279
282
280
272
274
278
280
279
281
290
298
300
303
312
318
325
328
334
335
333
333
340
344
347
343
348
352
349
346
348
350
353
349
348
353
351
346
348
350
350
347
342
344
344
342
340
340
341
341
338
342
346
345
336
337
342
343
341
338
341
341
339
339
337
338
339
336
340
344
342
337
337
338
337
334
336
333
333
331
333
338
341
336
335
341
342
340
339
342
342
338
334
339
342
340
336
341
343
339
328
327
329
329
323
323
333
352
380
407
424
436
432
418
408
390
372
353
340
333
333
328
328
327
324
317
317
319
320
316
315
316
315
313
313
316
314
308
304
305
310
308
304
308
305
299
299
302
302
299
289
287
290
290
281
279
283
282
276
272
272
275
278
280
286
290
289
295
305
312
315
318
328
337
340
336
339
346
351
347
345
351
352
348
346
350
351
349
347
350
349
346
346
354
354
352
344
348
352
356
346
341
342
340
337
341
347
346
339
339
341
340
342
352
365
353
341
336
347
355
352
342
347
350
349
330
320
318
336
341
336
327
335
355
346
321
322
320
319
331
339
340
332
332
339
338
332
344
354
353
327
323
337
342
340
343
349
339
322
324
333
333
329
324
330
343
361
394
422
442
443
428
420
402
383
358
346
341
343
341
330
335
334
325
324
338
339
320
312
320
331
332
317
325
326
317
312
321
331
328
305
315
335
328
312
311
321
312
287
284
293
296
299
295
298
297
291
275
291
309
301
287
285
290
301
305
313
327
344
343
338
340
336
338
353
366
367
361
357
367
379
378
365
364
370
371
346
347
365
363
357
359
359
366
365
355
364
375
362
351
364
375
356
333
345
365
367
350
358
372
356
335
346
365
362
335
333
363
372
355
344
359
365
356
356
362
356
345
331
345
356
348
326
341
355
356
337
345
363
361
333
332
352
362
339
333
361
361
338
330
363
362
337
309
341
356
342
307
344
389
412
397
425
460
462
403
383
390
378
341
328
349
353
323
302
330
341
324
296
324
335
318
288
320
335
324
286
308
332
323
287
293
318
324
289
277
313
325
296
270
297
304
286
255
286
298
283
244
267
288
285
240
259
288
288
252
263
297
305
283
280
322
332
306
291
333
350
338
306
335
353
346
313
341
364
358
313
330
361
363
326
328
358
363
329
319
352
362
335
314
347
353
335
307
339
352
340
308
336
360
348
307
320
349
350
309
309
344
354
326
314
347
353
330
312
347
356
335
302
335
348
334
305
334
354
348
303
312
336
338
304
309
342
350
325
314
348
353
326
304
339
352
335
297
326
347
343
307
329
352
347
301
308
334
336
298
297
337
361
357
373
420
434
416
382
398
404
376
324
341
345
331
289
308
331
333
298
307
329
330
295
289
321
320
294
283
313
323
302
278
309
323
307
271
298
319
313
273
291
313
312
270
275
298
300
267
260
285
292
266
247
280
291
277
250
280
295
292
268
303
325
324
300
326
343
338
308
320
350
356
325
318
351
362
337
322
354
360
341
320
354
371
358
319
339
355
349
318
342
366
362
322
327
353
352
323
323
351
354
330
310
340
351
335
311
340
355
342
311
336
354
351
318
328
351
349
317
330
363
358
320
309
337
354
334
313
344
350
330
305
333
347
336
306
328
352
353
317
331
348
348
320
327
350
350
323
321
349
353
327
306
335
343
325
298
328
340
336
323
375
420
426
409
425
435
415
366
353
362
360
323
309
335
339
315
296
326
335
319
293
325
340
326
288
307
328
328
291
301
324
322
288
293
320
322
295
289
318
325
293
269
298
306
286
257
287
303
293
256
272
287
286
253
269
295
299
272
276
312
322
303
302
337
346
324
305
337
350
342
322
350
365
350
315
336
362
363
330
344
366
366
333
335
363
366
341
330
359
366
344
317
344
357
347
317
342
361
353
316
335
355
355
320
327
348
352
324
323
351
356
327
317
352
361
338
313
344
357
342
313
341
357
344
302
326
351
348
312
322
349
352
318
318
355
361
334
322
350
342
340
332
327
329
331
331
325
330
339
357
381
403
417
429
424
413
400
382
366
355
348
336
327
323
324
323
319
319
324
324
318
313
313
313
313
309
312
313
311
305
310
314
312
304
303
304
302
297
296
299
297
293
289
289
288
282
277
277
276
272
268
273
275
273
268
270
277
283
283
289
298
306
308
310
318
325
327
330
336
339
339
339
344
345
344
341
345
349
350
346
347
349
348
344
345
347
346
341
341
344
344
341
337
340
342
341
337
339
340
338
334
338
337
333
328
333
335
334
330
333
337
337
333
333
338
337
332
330
337
340
335
331
335
337
337
334
335
335
334
330
332
334
331
327
331
334
329
323
323
327
326
323
324
333
335
333
329
333
336
332
328
331
335
336
332
332
333
333
331
331
333
331
322
315
318
320
316
317
324
337
358
380
400
416
423
412
398
384
369
350
338
330
326
320
317
317
316
313
312
313
313
307
303
307
307
304
301
305
306
304
299
302
302
301
298
301
301
299
292
291
292
290
286
285
287
284
277
273
274
271
267
264
268
270
269
265
270
277
279
280
288
295
303
306
310
316
320
321
324
330
336
336
338
343
343
340
336
340
343
343
341
343
346
344
340
343
345
344
340
341
344
345
339
338
342
339
336
335
337
338
337
335
338
337
337
333
337
339
339
334
335
338
339
336
337
339
340
337
335
338
339
339
337
341
343
340
336
337
337
337
333
337
340
337
331
329
330
330
328
329
334
337
335
335
339
341
338
334
339
340
339
335
341
343
341
337
340
341
339
331
328
327
326
324
322
326
331
346
371
400
417
428
429
422
408
389
372
360
347
336
328
329
329
327
322
323
324
322
315
314
316
317
312
311
317
317
313
310
313
313
312
307
308
308
306
301
304
305
301
294
294
297
297
291
285
283
282
276
273
276
278
274
274
280
284
285
283
292
300
307
310
318
326
329
329
336
342
345
343
346
352
354
349
346
350
353
352
351
355
356
355
353
355
355
353
349
351
353
351
347
348
349
350
348
350
351
352
348
346
347
347
344
344
346
347
344
342
347
352
350
345
347
350
349
343
345
348
350
347
347
349
351
347
344
347
347
343
340
345
348
342
336
339
340
339
336
342
347
349
344
344
347
347
343
343
347
345
342
343
346
348
347
345
347
345
340
334
336
336
336
329
327
333
351
379
407
421
432
431
421
408
391
374
362
356
347
338
331
333
334
332
326
329
329
327
321
321
319
319
321
325
324
327
335
337
324
311
314
328
332
321
310
305
292
286
288
281
288
291
279
265
275
280
280
283
281
276
270
266
268
282
295
299
294
306
321
321
322
333
342
355
350
347
362
373
366
356
357
372
380
378
378
377
374
376
377
367
365
368
368
368
371
361
364
368
374
363
356
367
379
366
364
363
358
340
343
363
366
348
334
347
347
342
342
356
371
363
351
367
375
369
340
347
369
377
352
347
355
360
340
337
356
360
341
336
359
372
356
338
353
354
343
325
349
360
349
330
350
365
362
334
344
355
354
326
335
360
367
345
344
361
361
331
312
341
348
332
313
337
353
359
360
411
441
445
421
432
433
412
362
355
365
358
326
324
346
346
323
308
337
343
322
299
323
337
328
299
320
336
329
298
312
330
327
297
307
328
328
293
295
319
321
292
280
309
315
293
269
296
304
287
260
285
300
294
262
284
305
300
267
285
319
329
298
300
337
350
328
317
347
357
342
326
353
361
351
323
352
372
368
335
352
369
365
331
343
368
366
333
331
359
366
340
329
359
361
338
318
349
363
345
315
343
363
355
318
337
353
348
316
330
359
363
326
321
351
358
330
316
348
361
340
314
342
352
335
308
340
363
358
320
338
359
358
324
334
356
354
316
311
337
340
316
308
345
359
339
314
341
351
337
308
335
351
344
310
328
352
353
322
329
352
352
319
317
345
346
312
294
328
356
360
361
407
437
432
394
402
403
380
329
335
348
344
308
313
334
336
304
300
326
329
303
292
322
332
308
281
312
329
315
284
307
322
313
282
304
318
315
279
288
316
310
274
265
290
294
268
255
285
292
268
244
272
285
274
247
273
293
290
261
286
314
319
294
311
340
342
313
314
346
353
325
314
349
360
339
317
350
365
352
323
349
365
358
320
337
361
364
330
333
352
354
324
325
354
358
328
314
343
352
335
314
345
356
343
352
351
348
351
354
352
346
349
353
355
349
349
350
347
342
344
350
352
344
340
342
343
342
340
344
345
344
340
344
345
344
341
344
345
342
339
342
347
348
340
337
342
343
337
333
337
336
335
332
337
342
342
337
342
345
343
337
337
341
343
338
338
341
341
339
338
343
346
338
331
332
332
326
321
329
336
348
369
400
418
429
431
426
412
393
374
361
352
341
328
325
329
329
325
322
324
322
319
314
316
318
318
314
315
315
316
311
313
314
311
305
306
311
310
304
300
304
305
299
292
292
288
285
279
281
282
278
273
275
276
276
273
277
284
290
290
293
300
305
309
316
327
333
332
334
341
343
342
342
347
350
349
345
347
352
352
349
352
354
354
351
351
353
352
347
347
351
351
346
343
348
351
346
341
345
347
345
338
341
342
341
337
340
344
345
339
340
344
343
336
336
341
344
341
339
344
344
337
335
342
343
340
334
340
346
344
334
332
335
335
331
333
338
341
340
338
343
344
339
337
341
343
343
339
340
343
340
332
336
341
340
330
328
332
333
326
321
325
335
355
384
408
422
428
424
415
399
378
360
353
348
339
326
327
328
323
318
320
321
320
313
313
318
317
312
310
314
315
312
308
311
312
307
302
306
307
303
299
301
302
299
288
288
292
289
281
278
279
278
273
271
276
276
274
271
278
283
283
284
294
303
307
308
319
328
332
329
333
340
343
340
342
347
347
346
344
349
349
348
348
352
351
349
346
349
348
348
344
346
350
349
342
342
344
345
340
342
346
344
339
336
340
340
336
335
343
344
342
337
340
342
341
334
337
340
342
336
339
340
341
337
340
344
342
337
335
338
339
337
333
335
336
333
329
336
341
342
335
338
339
339
334
337
339
341
337
338
341
342
340
340
343
343
335
327
328
328
328
324
328
341
367
391
408
420
431
423
412
396
377
360
350
345
338
329
322
324
326
322
318
321
322
318
312
313
315
314
308
312
314
311
302
305
310
309
304
303
306
307
302
301
302
298
288
285
288
288
283
276
278
279
276
269
272
275
275
273
277
283
287
287
291
302
308
312
318
329
334
335
333
338
342
342
339
343
347
350
346
351
353
353
347
349
353
354
348
344
346
347
346
348
351
349
345
342
345
346
344
338
341
344
343
340
342
345
341
335
335
339
342
340
339
341
342
338
337
341
343
340
338
344
346
343
337
340
343
343
338
342
344
345
339
341
343
343
335
333
338
339
334
332
339
342
337
331
332
333
331
326
333
338
339
335
337
340
341
333
333
336
338
335
335
340
342
339
336
336
338
333
327
330
328
325
321
328
336
352
373
398
412
424
424
415
404
388
370
353
344
335
325
322
325
325
319
314
319
320
315
310
314
313
310
307
312
315
314
310
309
312
310
303
303
306
304
297
293
295
297
295
289
291
292
288
281
280
279
278
274
277
279
278
272
276
283
288
287
289
296
303
307
312
320
325
326
326
335
342
343
338
341
344
347
343
346
349
349
342
342
347
350
346
344
348
350
349
346
348
345
342
337
340
344
344
338
340
344
342
336
338
341
341
336
337
342
342
337
335
339
342
340
338
340
342
341
338
341
342
341
336
340
344
342
336
339
342
341
337
339
343
343
336
336
342
344
341
339
341
341
336
332
338
339
333
326
330
333
330
326
332
339
341
335
336
340
341
335
335
342
344
341
335
340
341
339
334
339
339
334
325
325
327
325
322
327
343
369
388
404
425
434
427
409
394
379
361
345
339
335
328
323
324
325
319
313
317
320
320
314
314
316
316
311
311
315
315
310
307
310
311
306
304
308
309
303
297
299
300
295
288
293
294
288
280
280
280
280
275
273
276
279
275
277
283
287
289
295
306
312
312
312
321
328
331
332
339
343
344
342
347
351
351
345
346
351
350
346
344
350
352
349
344
349
352
352
347
348
348
348
343
346
349
350
344
343
347
347
340
339
343
345
343
340
341
343
340
338
342
343
341
338
341
340
339
336
339
341
340
337
341
345
345
341
339
343
344
338
337
342
344
343
340
343
342
336
332
338
342
336
326
327
330
331
329
335
342
342
335
332
338
339
336
335
338
339
338
335
339
339
337
333
337
336
331
324
323
324
322
321
329
351
379
398
411
427
431
418
399
384
372
357
339
332
328
324
318
320
323
322
316
316
317
316
311
313
316
314
309
307
311
311
306
302
303
302
301
300
304
305
302
295
295
295
292
285
284
285
284
276
273
275
274
270
271
274
277
272
270
278
285
288
289
297
304
310
311
320
327
330
326
334
341
343
338
338
343
344
339
337
344
347
345
342
345
347
343
341
345
344
341
336
341
345
344
337
336
337
337
334
335
338
338
334
330
332
333
331
330
334
334
332
329
334
336
334
330
333
337
336
329
329
333
334
328
329
332
332
326
325
329
328
323
320
324
326
323
321
327
331
331
326
330
332
331
325
326
331
332
329
329
333
333
328
325
326
322
314
310
316
319
315
312
332
364
392
400
414
425
418
394
375
363
352
336
326
325
322
314
310
311
310
306
302
307
310
308
303
304
305
303
295
297
302
301
296
296
298
299
295
292
295
295
290
287
288
286
280
276
276
276
272
266
267
269
265
257
258
264
269
267
269
275
281
285
293
300
306
311
316
325
329
327
326
334
339
339
335
339
343
343
340
345
348
346
339
341
344
346
344
342
343
343
339
337
340
343
339
332
335
339
338
333
337
340
338
331
333
337
336
333
335
339
337
333
334
340
339
334
333
338
339
336
337
341
343
340
334
338
342
344
337
338
338
337
331
330
333
333
328
327
334
338
337
337
342
342
339
334
339
342
340
335
338
340
341
337
339
341
341
335
330
329
330
326
325
331
338
351
375
406
421
428
427
421
409
389
368
358
348
337
328
330
332
329
320
319
322
322
319
317
322
323
317
314
318
319
316
313
317
318
316
311
312
311
309
305
306
307
305
298
296
299
299
295
290
289
288
285
282
285
288
287
284
288
293
294
291
298
306
313
313
320
330
334
333
339
344
346
345
348
353
354
352
352
356
359
357
354
356
357
356
350
354
359
359
353
354
355
354
348
349
355
356
350
349
352
352
346
342
347
350
351
347
349
352
349
343
345
348
348
344
348
352
350
344
346
351
353
349
347
349
350
348
344
348
349
349
348
351
351
349
341
341
344
343
337
338
342
345
343
347
350
349
346
347
353
353
347
343
348
351
349
344
348
352
352
343
337
335
337
334
332
334
342
358
386
415
428
436
437
432
417
395
375
367
358
347
338
338
338
337
328
327
329
330
324
325
329
327
320
321
325
325
320
317
321
323
321
318
320
320
317
310
315
317
316
313
312
307
302
295
296
298
295
290
287
289
291
289
289
294
296
295
294
303
312
316
318
325
334
340
338
342
347
352
350
352
355
357
357
358
362
361
357
356
360
362
360
357
359
360
356
352
355
357
356
349
350
352
352
348
350
352
352
348
348
352
352
346
344
350
352
348
344
346
348
346
342
346
349
350
344
345
347
347
344
345
348
346
343
343
349
349
345
339
341
343
342
337
338
337
336
333
339
344
345
341
343
344
343
337
339
345
344
340
341
345
345
341
341
344
343
339
330
329
332
332
326
325
326
340
364
397
417
428
433
429
416
397
374
361
356
349
338
330
331
328
322
318
322
324
322
315
317
320
319
311
313
318
318
312
310
314
314
310
305
306
305
301
298
301
301
296
291
293
293
289
282
284
283
280
274
272
273
273
272
273
278
282
283
288
298
304
307
309
320
326
330
331
338
343
346
342
347
351
351
346
349
353
354
349
349
352
354
350
347
350
350
347
342
346
348
345
340
345
348
343
337
340
343
344
339
336
338
338
335
336
339
339
335
334
339
341
341
338
338
339
339
339
342
343
340
333
337
341
343
339
339
341
342
337
334
333
334
333
333
333
336
336
336
341
344
342
337
339
341
341
338
340
345
345
339
339
344
344
337
329
330
330
326
322
327
334
348
372
406
422
430
430
424
410
392
373
362
351
339
327
327
328
326
321
320
324
323
317
314
318
320
316
310
313
315
313
309
312
314
313
307
306
306
306
300
300
301
302
300
297
298
295
287
282
284
285
280
274
278
279
278
273
280
287
288
286
292
300
306
307
314
323
328
328
331
337
342
341
342
349
351
347
342
346
350
348
345
348
351
351
346
348
350
349
343
344
348
348
343
342
347
348
344
340
342
342
342
337
340
341
340
336
337
341
340
334
335
340
341
335
337
342
341
336
335
341
344
340
337
339
339
339
336
341
341
337
332
336
337
334
328
328
330
332
328
332
338
337
333
332
337
337
336
330
335
340
339
335
337
340
339
334
338
336
330
319
318
322
324
323
329
352
382
400
412
429
432
419
398
383
369
353
334
329
327
326
320
320
321
319
312
314
318
316
310
309
312
313
310
308
310
310
307
304
306
307
304
300
301
300
296
293
297
298
294
287
287
287
284
277
275
277
276
270
269
275
278
277
275
283
290
293
294
304
313
316
316
323
331
336
335
336
340
344
341
341
346
349
347
344
347
348
346
344
349
351
349
343
347
349
347
344
344
345
345
341
341
344
344
338
338
343
341
336
334
339
339
337
334
338
340
339
335
339
343
343
339
340
342
342
336
336
341
342
336
335
339
340
335
333
337
337
333
327
330
333
334
331
337
343
341
333
334
339
341
336
335
338
342
339
338
338
339
337
335
338
333
324
320
325
327
327
326
343
373
400
411
427
435
429
409
391
377
363
344
334
332
330
324
320
322
322
317
312
317
320
320
313
311
311
312
307
309
312
311
303
302
305
306
302
296
298
300
297
291
296
297
289
284
287
285
281
274
273
275
275
270
272
276
277
275
279
287
291
293
299
308
314
318
321
328
332
334
334
341
344
345
342
348
351
351
346
348
351
351
345
345
350
352
348
347
349
349
344
339
346
348
345
340
343
346
346
341
341
342
344
337
338
342
343
335
334
342
347
343
338
340
340
338
337
342
345
342
340
344
343
342
338
340
342
340
335
336
340
338
331
329
333
335
332
331
340
341
338
335
339
339
337
335
340
341
339
336
339
344
343
336
336
341
338
327
325
331
329
321
318
331
356
383
403
424
438
436
420
405
389
373
353
342
335
330
322
321
323
324
320
320
321
319
312
310
314
316
313
309
315
315
311
304
309
311
309
302
304
305
305
297
294
297
297
291
287
288
286
277
274
279
281
277
271
272
276
277
275
284
290
292
290
300
308
315
316
322
333
336
336
339
347
349
344
342
347
351
350
347
351
353
350
346
351
353
351
347
348
350
352
348
347
349
347
343
340
344
345
343
342
346
348
345
341
343
344
342
337
342
346
345
340
340
342
342
339
342
348
348
343
339
343
345
343
340
344
344
341
337
341
342
336
329
331
333
335
334
343
347
345
337
337
343
343
339
338
343
344
340
336
341
344
340
335
335
335
330
325
329
330
328
327
350
386
415
423
434
440
431
407
385
375
363
345
332
329
328
322
317
320
322
319
315
318
320
318
312
313
316
316
311
308
311
311
305
304
306
304
301
298
303
302
297
292
293
292
289
284
285
284
279
271
271
275
274
268
268
274
278
279
281
288
293
297
299
309
317
323
321
327
332
335
335
341
346
348
344
345
349
350
345
345
349
351
348
345
351
353
350
342
344
346
344
338
342
344
341
336
341
345
343
339
339
341
340
335
333
338
340
336
337
343
342
339
335
337
339
338
333
336
339
338
335
336
337
334
328
328
333
334
332
334
342
345
342
339
339
338
336
335
341
342
339
333
338
342
341
334
335
333
331
325
327
327
325
329
356
393
419
423
431
436
425
402
377
365
356
345
333
333
332
327
319
321
322
318
313
316
319
317
313
311
313
313
311
310
313
313
309
305
309
310
304
296
301
303
300
292
293
294
292
284
282
281
279
275
271
272
275
272
271
275
275
276
280
292
301
303
303
312
321
326
326
333
340
344
344
347
352
354
352
352
353
352
349
350
356
357
354
349
356
357
355
350
353
354
351
345
348
349
348
343
344
350
349
341
339
343
345
341
338
344
346
344
339
343
347
347
341
343
345
344
340
342
344
342
337
338
338
335
331
331
337
341
340
339
345
347
345
341
343
345
343
337
341
345
348
344
345
349
348
337
333
332
331
327
326
330
334
347
373
408
428
434
435
435
424
402
377
365
357
344
330
328
329
328
323
324
327
326
319
316
319
318
314
313
317
317
313
307
313
315
312
306
308
308
307
302
304
305
300
293
292
294
293
287
283
284
283
279
275
277
277
275
274
278
283
286
287
294
301
305
307
315
324
329
329
332
339
344
343
344
348
350
347
343
347
350
349
346
352
356
352
346
348
350
349
343
344
348
348
342
341
345
345
339
337
342
346
344
342
344
345
343
336
339
340
339
337
342
344
344
338
339
341
342
336
338
342
340
336
335
340
338
331
327
333
336
338
335
337
341
342
339
342
344
342
338
340
343
342
337
336
342
344
338
335
335
332
327
324
328
328
328
333
361
390
409
421
436
436
420
396
382
371
355
338
331
330
328
323
319
323
323
317
313
316
319
315
312
316
317
315
308
308
312
311
306
305
306
306
303
302
304
304
297
294
293
294
291
284
285
282
276
270
271
272
273
269
273
279
282
280
284
293
299
301
306
318
323
325
328
337
340
338
337
344
348
349
345
347
349
350
347
348
352
353
348
348
352
354
349
348
352
351
346
344
349
349
343
341
345
346
344
340
342
344
343
339
341
346
344
336
337
342
343
338
339
345
347
343
342
345
344
342
340
344
345
343
339
339
339
337
330
333
337
337
334
338
344
346
340
340
345
347
344
342
347
346
342
339
345
349
345
338
338
336
332
325
327
327
326
328
349
386
409
420
433
438
427
407
389
377
361
346
333
333
332
330
323
321
323
324
318
319
320
320
313
312
315
316
310
310
316
316
306
301
306
308
306
302
304
303
298
292
294
292
288
279
277
280
280
276
276
277
273
268
271
277
278
273
274
287
298
302
303
314
322
325
326
335
341
343
340
347
352
349
345
349
356
356
351
347
351
353
350
348
353
356
354
347
350
350
347
341
345
347
347
340
341
344
345
340
340
345
346
341
338
341
342
339
338
343
344
343
340
344
346
343
339
344
347
346
340
342
347
346
340
339
342
342
337
335
337
337
331
329
337
343
343
337
340
344
344
339
342
345
346
344
345
344
342
340
343
346
345
334
324
330
332
328
321
323
329
345
374
404
423
438
438
431
416
395
374
362
352
342
329
324
325
324
317
316
322
322
317
315
320
321
316
308
311
312
310
308
309
310
309
304
305
308
309
301
298
302
301
292
288
293
287
277
273
276
275
271
265
270
274
274
270
275
279
282
285
293
300
305
305
312
321
326
326
332
343
349
348
344
345
346
345
344
349
353
354
350
350
354
352
346
347
350
349
342
341
345
346
343
343
347
345
339
335
339
340
338
335
341
343
339
335
339
341
340
336
339
342
341
337
338
341
340
336
337
344
346
343
341
344
343
340
337
342
341
336
330
336
339
337
328
329
334
334
330
332
338
339
337
336
341
344
342
340
342
343
338
332
336
340
340
337
336
335
330
322
324
327
324
315
315
333
363
390
407
426
436
426
407
391
375
360
347
343
337
328
319
323
326
323
314
314
317
316
312
312
316
313
308
307
311
313
309
304
308
310
306
299
302
305
301
292
293
295
294
287
285
288
284
277
275
278
275
270
267
274
276
275
274
282
287
290
292
303
313
318
317
325
336
337
335
339
346
348
345
346
353
355
348
345
351
352
351
348
352
354
352
345
350
351
350
345
347
351
352
345
342
342
343
339
340
345
344
339
336
342
343
342
340
344
344
341
336
340
343
342
338
342
344
342
336
339
343
344
341
339
344
344
339
336
338
337
333
329
335
338
338
336
340
343
342
337
339
344
345
340
341
345
345
341
341
346
346
341
334
333
333
329
329
332
329
329
340
371
401
414
422
432
432
415
389
372
364
357
346
338
337
332
325
319
321
321
320
320
324
324
320
312
314
315
314
310
311
313
312
306
308
311
311
305
303
306
306
300
295
299
298
292
284
285
285
281
275
277
277
275
273
275
279
281
280
286
297
303
303
307
318
327
330
331
339
344
344
342
350
354
351
348
351
354
355
351
352
353
351
348
351
356
354
349
348
351
352
349
347
350
349
345
341
343
347
346
341
344
346
344
339
340
344
344
339
339
343
343
340
339
342
344
340
338
342
345
343
339
343
346
345
340
339
342
342
339
342
341
340
337
336
338
336
332
330
333
334
332
331
339
343
342
338
342
343
339
334
337
341
339
333
338
344
345
337
336
339
334
324
322
327
327
323
324
341
368
391
402
418
429
422
401
387
378
365
346
337
333
329
320
320
325
326
321
317
319
319
316
312
316
318
316
312
316
318
314
306
307
309
308
303
304
305
305
299
299
302
297
290
288
290
290
285
279
281
281
277
273
277
280
280
278
285
289
293
296
304
313
319
319
324
331
334
335
338
343
346
344
343
348
351
349
345
350
352
351
346
347
351
352
346
349
353
352
347
346
349
349
344
343
345
345
341
338
341
343
341
337
340
341
341
337
341
343
342
336
336
337
339
336
338
342
343
339
338
341
341
339
337
342
345
341
335
337
340
339
334
338
343
342
335
336
339
338
332
330
333
331
326
325
331
335
335
334
341
342
339
334
339
341
341
333
335
338
337
334
338
345
345
337
332
330
326
321
318
322
327
331
346
378
402
415
423
430
423
404
380
369
357
345
331
328
329
327
322
319
320
318
314
313
317
318
315
310
315
317
315
306
308
310
310
306
308
309
306
298
302
306
303
295
293
295
295
288
284
285
283
277
271
275
276
276
273
278
282
281
276
283
293
299
302
311
319
322
324
330
336
340
341
342
348
350
349
344
349
353
352
347
350
353
353
350
352
353
351
345
346
351
352
346
344
347
347
343
340
344
344
342
340
345
347
343
338
341
343
343
339
342
344
341
334
335
340
343
340
340
341
343
339
338
342
343
339
334
340
341
340
337
343
344
342
337
340
344
344
339
338
339
337
333
334
339
337
329
324
329
333
333
332
336
338
337
333
338
340
340
334
334
340
340
336
339
343
343
337
335
336
331
324
319
324
324
318
315
330
358
384
395
415
430
427
408
392
380
368
349
339
333
329
321
319
323
321
316
315
318
318
314
308
313
315
313
309
312
314
311
306
308
309
310
304
301
304
304
299
297
297
296
289
285
286
285
281
273
275
275
272
268
271
275
277
276
280
285
289
290
298
305
312
315
321
331
335
333
332
341
348
347
344
347
349
349
345
350
353
352
348
349
354
352
345
347
350
351
346
344
346
348
344
341
346
348
345
341
345
346
342
337
343
346
341
336
339
342
343
337
338
341
344
339
340
343
341
335
332
340
344
340
337
340
342
338
336
339
342
340
332
333
337
339
333
333
336
334
328
329
337
338
335
334
339
342
338
333
339
341
337
332
336
339
340
337
339
339
340
333
330
330
329
327
327
326
323
326
346
380
404
415
422
427
416
394
370
363
356
345
330
326
327
324
316
314
319
318
311
310
313
312
309
307
310
311
307
301
304
306
303
298
301
304
302
294
295
297
297
288
285
288
287
278
275
277
276
269
264
269
268
263
260
267
274
274
271
278
283
289
291
301
311
316
315
319
326
332
329
329
337
339
337
333
338
339
336
331
336
340
338
333
336
341
342
336
336
337
334
326
327
332
334
331
328
332
332
327
325
328
329
325
321
324
324
323
320
327
331
326
320
322
326
325
319
321
325
325
319
318
323
327
323
320
323
325
324
320
323
324
321
316
321
325
322
317
320
321
319
314
315
320
319
313
311
316
317
313
311
318
321
320
316
320
322
321
315
317
321
323
320
321
323
324
319
320
325
318
308
304
310
310
307
307
318
334
355
372
394
411
411
395
383
371
357
338
327
321
317
308
307
312
311
305
302
306
304
300
299
303
304
301
295
298
301
301
294
296
300
298
292
292
296
295
289
287
290
288
284
279
281
282
276
270
272
272
270
267
269
271
271
267
272
278
282
281
290
300
303
303
310
320
325
325
326
334
337
335
333
341
345
343
340
345
346
345
341
346
348
346
340
342
347
347
343
343
347
346
341
340
345
346
341
336
341
344
343
337
342
345
343
336
340
346
346
337
337
342
344
340
341
346
349
343
340
344
346
343
340
346
348
347
342
345
349
347
341
347
352
351
346
347
351
350
343
344
349
352
348
342
345
345
342
337
341
343
340
336
340
341
343
344
347
351
351
344
345
349
351
349
349
351
351
349
347
353
353
349
342
344
342
337
332
335
339
343
351
380
411
428
435
442
441
429
409
393
383
369
351
342
346
343
337
333
337
338
334
329
331
333
331
326
330
333
332
324
327
328
325
320
322
328
328
317
313
319
321
316
309
313
312
307
300
304
306
302
292
295
297
296
288
289
293
297
296
300
307
314
317
321
331
338
341
343
351
355
354
352
356
361
364
361
364
367
368
362
363
365
366
364
364
368
369
364
360
366
368
365
358
361
363
361
360
364
363
357
352
356
360
360
352
352
358
359
354
352
355
355
351
351
356
355
353
351
356
358
355
350
354
358
357
351
353
357
357
349
351
356
357
352
352
353
353
352
349
354
356
353
347
351
354
348
342
345
348
347
340
340
341
342
338
342
348
350
346
346
351
350
343
342
349
351
350
347
349
349
347
345
349
348
342
332
334
338
336
329
332
344
365
386
408
429
444
444
429
414
397
377
358
349
342
335
327
330
332
329
322
323
325
323
319
318
320
321
318
315
319
320
315
310
315
317
312
307
308
309
308
304
305
304
299
291
292
296
295
288
282
283
282
276
276
281
282
280
279
285
290
291
292
301
308
311
314
325
332
332
330
337
347
348
343
346
351
354
351
349
355
357
354
352
356
355
353
348
353
355
354
349
349
351
351
347
349
351
349
344
345
349
349
343
340
345
347
343
342
346
348
346
340
343
345
344
339
342
346
347
343
346
346
347
343
341
347
350
344
341
344
346
344
339
342
343
341
339
344
347
343
340
343
345
343
336
338
342
340
333
332
336
337
331
331
338
343
340
340
341
342
342
336
339
342
341
337
341
344
344
338
340
343
340
329
327
330
330
324
319
325
337
359
387
408
427
438
431
422
407
385
365
356
347
338
327
324
326
326
319
318
320
318
314
313
318
317
314
311
314
314
311
305
308
312
310
303
305
307
304
296
298
300
298
291
291
295
293
286
279
278
277
272
268
273
276
274
270
274
281
285
285
291
298
304
307
316
325
329
330
335
342
343
341
342
348
350
347
344
348
352
351
347
350
354
353
346
346
352
352
345
346
350
349
342
342
347
348
342
340
346
347
341
337
341
341
340
337
342
343
342
337
342
343
341
338
341
343
341
337
338
343
345
338
336
343
344
340
338
347
349
343
338
343
344
340
335
338
341
341
336
336
340
340
332
331
333
333
328
326
330
333
333
335
344
344
341
336
341
343
342
337
337
340
342
336
337
340
341
337
335
334
328
323
324
325
323
326
342
377
406
420
427
435
430
411
386
374
363
350
335
329
329
326
319
318
316
312
309
312
318
320
315
308
309
312
312
309
311
310
307
303
305
308
304
297
299
303
301
295
296
297
292
281
277
280
282
277
272
274
276
272
269
276
279
277
273
279
288
295
298
308
317
321
319
323
333
338
337
339
346
349
346
344
350
350
348
344
349
350
349
343
344
348
350
344
347
350
349
339
338
345
346
341
340
344
342
337
334
341
342
337
333
338
342
342
337
337
340
340
334
335
339
340
337
337
342
341
338
337
342
343
340
336
340
343
342
339
341
341
338
333
337
340
336
328
331
336
334
328
328
329
328
322
325
338
344
338
334
338
341
339
335
341
342
334
329
337
342
340
332
334
338
335
323
320
323
320
314
315
326
344
370
392
416
433
430
415
404
386
369
351
343
336
330
321
320
324
322
313
313
318
318
314
310
312
313
306
302
306
309
308
299
299
305
306
301
302
304
300
294
298
303
301
292
283
282
281
278
278
278
277
274
271
271
272
272
271
278
285
285
282
293
302
307
307
317
328
329
323
328
338
339
334
334
336
339
339
338
344
344
340
334
342
347
346
338
339
344
346
339
338
339
337
327
328
338
339
335
334
333
333
333
333
340
337
332
328
333
334
334
330
334
335
333
330
331
333
332
330
332
336
334
328
325
328
329
329
327
333
335
328
323
330
331
329
325
328
333
333
329
330
332
335
332
330
336
335
329
323
322
326
324
323
326
328
325
314
316
321
322
317
322
339
364
381
396
412
421
410
394
377
362
346
335
331
328
322
314
316
318
315
311
310
309
308
305
309
307
306
303
303
308
310
305
306
309
307
304
304
305
302
295
291
297
299
292
285
290
292
289
285
285
287
286
280
279
284
287
281
279
287
294
292
292
298
307
312
315
325
329
328
326
330
331
335
332
336
343
347
334
330
342
348
341
337
342
342
336
335
345
343
339
336
340
342
342
336
334
333
333
330
335
336
335
329
335
343
342
332
329
334
336
334
329
332
335
334
328
336
339
333
324
325
332
338
335
337
336
332
326
329
335
336
332
330
338
341
336
336
341
344
336
330
338
339
341
341
341
339
337
329
328
333
333
333
339
337
337
348
379
410
419
417
411
410
404
382
360
358
347
335
327
328
327
326
322
323
323
323
317
314
317
320
317
316
318
321
314
310
321
320
316
311
314
313
310
307
311
310
310
303
311
310
302
290
295
300
298
290
283
290
295
292
285
287
293
295
297
305
312
318
318
325
330
331
329
331
336
341
343
344
351
350
339
343
345
345
348
345
350
353
347
340
346
352
353
344
347
352
347
340
348
351
350
341
344
349
349
348
341
338
345
349
347
348
348
338
327
338
348
345
339
343
350
352
344
347
344
346
340
341
344
344
345
346
346
347
345
344
346
351
350
337
339
340
345
356
364
358
353
343
345
345
335
329
335
337
339
347
358
388
412
417
418
425
420
400
382
375
360
346
338
348
348
332
325
338
342
334
324
326
328
328
326
330
329
333
325
315
328
331
321
314
318
325
326
320
323
324
320
310
307
314
312
299
311
317
319
312
305
301
301
293
287
305
311
308
304
313
316
324
325
325
325
333
334
332
336
349
347
350
356
352
347
347
349
353
349
349
350
347
345
338
347
351
345
344
355
351
344
340
344
357
363
354
342
341
345
340
346
350
344
332
328
342
349
338
326
336
349
347
338
344
351
344
328
327
336
337
335
333
337
339
338
338
341
345
347
341
345
345
339
335
340
344
344
341
343
340
340
337
338
339
336
331
326
329
336
336
352
381
399
401
403
411
407
387
362
354
350
344
334
335
336
333
316
315
323
328
321
321
319
317
313
312
318
319
313
308
318
322
314
306
313
317
319
313
314
313
306
292
294
300
302
298
300
303
305
292
280
287
295
298
291
289
291
293
293
302
309
313
310
315
324
332
330
336
342
342
332
334
339
341
334
335
342
344
344
337
339
341
343
340
345
353
345
336
340
344
344
341
339
333
337
335
342
342
339
332
337
349
351
344
335
337
338
336
336
339
339
333
330
337
345
346
337
338
341
342
332
332
339
346
341
335
337
340
332
329
334
340
333
328
334
338
338
333
338
343
344
338
338
336
334
333
337
337
338
337
336
340
340
329
319
328
335
332
329
333
340
358
376
388
391
394
391
394
391
374
352
340
335
334
331
328
328
328
328
323
330
332
324
313
318
326
328
316
314
320
322
319
322
329
332
320
312
313
316
312
309
313
315
310
311
315
312
296
290
302
305
305
297
297
298
296
291
295
308
311
302
307
317
320
316
319
327
332
329
329
332
332
331
331
340
339
335
332
336
340
342
333
338
340
334
332
336
341
342
333
327
330
333
333
332
343
343
330
322
333
337
330
326
337
342
336
329
327
328
334
332
330
333
338
333
329
332
332
332
332
333
329
329
327
333
335
332
324
333
332
331
331
334
331
329
321
327
334
335
328
326
331
333
327
322
325
327
327
326
329
339
342
331
328
332
333
329
332
333
334
326
326
338
336
325
324
329
330
323
321
324
322
317
322
346
367
380
382
395
400
387
370
362
351
338
328
327
330
333
324
317
319
319
312
307
315
319
313
307
312
315
315
308
314
314
314
310
308
306
305
304
302
304
300
296
297
305
302
296
294
296
295
289
286
293
294
286
280
287
289
292
293
296
300
301
296
309
321
319
313
315
325
330
329
327
329
333
334
328
333
335
332
324
330
340
341
327
330
338
341
332
331
335
334
329
324
333
339
334
331
337
336
327
320
327
333
331
325
330
334
330
321
329
332
330
321
325
329
325
320
319
324
329
324
318
320
323
323
317
324
329
325
318
323
324
322
319
322
324
325
318
320
327
327
321
321
326
321
318
316
325
327
323
317
322
323
321
318
319
320
324
322
326
330
328
319
316
323
323
321
324
330
333
329
326
332
332
327
322
326
324
319
312
318
321
318
316
333
358
379
383
392
401
403
390
373
362
353
341
328
331
327
319
314
319
321
322
314
314
319
315
306
311
318
318
313
313
317
314
307
308
315
311
305
305
311
310
305
302
306
309
304
296
301
305
301
291
292
293
296
293
292
299
299
292
291
300
306
304
304
316
321
321
320
328
335
338
336
338
335
333
329
335
342
342
335
337
343
338
329
330
340
346
341
333
338
339
334
328
334
337
334
325
331
336
333
323
323
329
331
328
327
331
332
327
326
332
330
324
321
323
325
326
324
329
330
326
319
323
327
327
323
326
330
329
324
325
331
331
328
330
334
332
325
321
327
329
328
325
328
331
329
327
332
336
335
326
328
337
339
335
332
334
334
328
327
333
332
328
326
331
332
329
324
329
330
327
322
329
335
337
332
336
337
332
327
331
339
340
331
327
333
335
331
328
336
339
334
323
321
323
326
320
322
333
350
367
390
402
409
407
399
394
381
360
344
338
332
329
324
327
324
320
315
321
319
315
310
316
320
320
313
312
319
319
313
312
319
321
314
310
316
317
310
305
310
312
312
307
309
309
306
301
303
304
300
294
297
302
304
301
299
303
307
304
302
309
316
318
316
323
331
333
330
336
341
345
340
343
348
348
341
344
349
350
344
345
351
352
343
339
345
349
346
338
342
343
342
337
343
346
343
335
336
341
340
333
335
341
342
336
335
338
340
336
335
342
343
337
331
338
340
339
334
339
340
337
331
336
339
343
338
337
340
341
337
336
342
342
335
335
342
345
339
336
341
343
341
338
341
343
341
335
339
344
343
334
337
341
341
337
338
344
345
336
333
341
345
338
330
332
336
335
330
335
341
341
336
338
339
339
334
336
344
345
338
337
341
344
340
336
339
342
340
334
334
333
331
328
328
331
339
351
379
406
415
415
417
417
408
388
369
360
349
336
328
330
331
325
320
322
325
323
318
322
327
323
313
318
326
328
317
315
317
320
315
314
316
317
313
310
314
317
315
309
310
310
306
299
301
304
301
295
300
302
299
291
293
296
297
294
299
311
315
314
315
324
329
328
329
340
347
346
341
345
349
350
345
349
349
350
345
346
351
353
348
348
352
352
347
345
350
350
346
342
347
348
344
339
345
348
344
340
344
347
346
342
343
344
343
334
336
343
344
338
334
338
343
341
336
339
341
339
335
338
342
342
336
337
340
341
333
334
341
341
334
335
343
346
342
333
334
337
338
336
340
340
338
332
335
339
339
332
333
338
340
335
337
346
346
338
333
339
342
336
331
338
340
334
326
330
333
333
329
330
334
337
336
339
343
342
334
335
338
342
339
337
341
342
339
336
341
343
334
325
327
330
331
323
327
336
352
372
400
419
428
426
419
410
390
367
352
346
338
326
324
330
329
324
318
322
322
319
312
319
324
323
316
317
320
320
311
309
312
312
309
309
312
313
307
302
305
309
307
299
300
299
295
287
288
293
293
284
285
288
289
284
285
292
296
292
292
302
309
312
311
321
327
330
329
336
342
342
338
344
348
349
345
347
352
350
340
344
352
354
346
345
349
349
345
343
347
350
346
340
340
343
343
338
341
347
347
338
338
342
342
337
339
342
342
336
337
344
344
339
335
340
342
338
334
338
341
340
337
339
339
339
332
334
340
338
334
336
342
342
335
334
339
340
336
332
337
338
336
331
337
338
333
330
336
340
336
330
332
337
338
333
333
337
337
331
331
336
334
326
320
325
327
325
321
329
335
336
331
333
333
331
329
333
336
335
330
332
336
336
332
329
332
332
325
319
323
326
321
311
317
336
359
382
403
419
425
416
404
388
369
350
340
334
326
318
317
320
320
313
307
310
312
307
302
307
311
310
303
304
308
308
302
302
305
305
296
293
298
299
293
289
296
296
287
281
286
285
279
272
274
275
273
270
273
274
273
268
270
278
282
282
286
294
299
298
303
314
321
321
320
327
333
333
329
332
337
336
332
338
343
341
334
335
340
340
335
335
339
340
335
332
334
334
330
330
335
337
333
327
330
332
330
324
329
334
332
325
326
330
329
324
326
330
332
329
328
334
335
330
324
330
331
329
326
330
334
334
329
331
333
333
327
326
330
334
331
329
332
333
329
328
332
334
328
323
327
332
328
323
327
330
329
325
328
328
326
321
323
326
324
318
318
321
320
318
319
326
331
326
319
326
328
327
323
326
326
326
324
329
332
330
322
325
329
324
315
316
320
319
310
308
327
358
383
397
414
426
416
391
375
364
352
336
329
326
321
311
312
314
314
308
305
308
308
303
302
307
308
304
299
304
306
299
291
296
301
300
295
297
300
297
289
289
291
288
280
277
281
281
275
269
272
272
268
262
265
267
267
266
274
280
282
280
288
297
300
298
308
320
322
317
323
334
336
332
328
333
339
335
332
339
341
337
333
336
339
343
336
333
334
337
333
332
336
336
332
328
333
338
333
328
328
328
323
320
328
328
323
318
325
331
330
323
324
327
327
321
322
327
329
323
321
325
328
325
322
329
329
322
317
324
326
325
319
323
326
322
313
313
321
326
320
318
322
322
315
312
316
316
312
314
319
319
312
308
315
318
317
315
319
320
316
310
316
320
317
310
312
320
319
310
304
304
307
305
297
303
319
342
362
379
393
400
387
376
362
347
328
324
321
318
309
305
302
298
293
299
307
306
295
292
300
301
292
285
291
296
294
286
289
291
293
286
283
287
288
285
283
282
280
274
274
276
275
268
263
270
268
262
256
259
262
263
260
265
272
276
274
281
287
293
295
304
312
317
316
315
321
326
327
325
327
328
328
325
329
333
329
327
334
335
333
330
334
335
334
331
334
336
337
331
329
333
336
332
332
338
335
333
332
335
336
335
331
335
337
339
334
334
337
340
337
339
341
342
338
336
341
344
342
339
339
339
338
335
339
344
346
338
337
341
343
338
340
339
338
333
333
337
339
335
338
347
352
350
345
345
343
340
338
344
348
344
340
345
349
345
330
329
335
339
334
334
337
347
362
386
410
416
421
421
413
397
381
367
358
348
341
336
334
332
332
327
331
334
330
323
325
324
322
321
326
330
325
317
313
319
323
323
320
320
319
319
313
313
311
313
304
303
309
309
301
297
301
301
293
289
292
292
289
288
296
296
296
298
308
313
314
314
325
334
338
335
335
340
347
346
343
347
350
350
348
349
348
346
345
349
351
349
344
350
351
348
341
346
352
351
344
347
351
350
341
337
342
347
341
335
341
346
342
335
341
345
338
335
340
343
339
332
340
346
342
331
336
344
348
340
334
336
337
337
340
344
340
330
329
334
338
337
334
343
348
344
337
346
349
343
336
338
342
345
342
339
340
342
343
339
340
334
327
326
335
339
337
343
366
392
406
405
414
414
403
387
375
366
356
342
337
340
334
327
327
329
328
322
319
323
326
323
315
321
323
318
316
322
327
329
317
313
315
317
314
310
311
308
303
308
312
312
306
298
303
301
295
289
295
301
296
287
290
298
301
297
299
306
311
312
317
327
332
331
333
344
346
341
339
344
348
348
344
349
356
355
348
349
349
349
343
347
355
358
349
343
346
350
346
345
351
350
345
344
346
349
346
341
343
342
337
336
343
350
353
342
335
335
338
335
335
340
340
335
336
343
343
339
335
337
338
336
336
340
337
335
331
334
338
342
336
337
342
340
333
332
339
342
338
338
342
341
339
336
342
345
339
330
328
328
329
328
331
329
333
344
366
391
404
409
409
406
394
374
361
353
342
339
331
328
327
326
320
321
321
320
318
319
320
321
317
316
315
311
309
312
314
311
307
305
308
311
309
303
305
310
308
300
298
300
300
293
292
296
294
283
280
282
284
280
278
286
290
291
291
295
298
301
306
318
325
322
316
322
333
339
334
334
339
342
337
335
336
336
335
337
344
344
335
330
338
342
338
331
336
339
340
332
332
336
337
332
338
338
332
327
327
333
335
333
331
336
337
331
327
331
332
330
326
329
330
328
321
326
334
334
328
331
333
326
324
326
332
332
326
324
329
334
335
332
334
334
331
327
335
341
338
330
331
334
337
333
334
341
338
325
321
327
329
324
322
327
337
357
380
397
405
408
396
389
381
368
350
341
338
336
326
320
319
321
316
317
321
323
318
316
318
318
317
314
316
317
311
305
312
320
320
310
304
307
312
311
313
313
308
299
298
305
307
302
294
293
294
293
292
297
297
292
286
295
303
302
298
308
319
320
317
323
332
334
332
336
341
347
344
340
343
344
343
340
344
348
348
341
343
346
346
341
344
346
345
343
346
349
349
340
337
343
347
345
342
346
347
343
335
338
343
345
339
336
339
342
336
339
346
341
336
339
344
346
335
331
338
343
339
334
338
341
337
331
338
341
337
332
334
339
341
332
331
335
338
331
331
336
342
339
339
341
343
343
337
338
340
338
336
343
346
337
329
336
336
333
325
327
334
333
331
341
361
382
389
395
406
407
394
378
369
362
349
336
335
334
331
326
325
327
321
313
315
321
324
320
317
321
323
321
320
321
322
315
311
314
315
314
312
314
313
312
308
310
312
307
300
304
306
305
300
300
301
295
291
295
300
299
295
296
304
311
312
312
319
325
328
326
333
339
338
334
340
346
348
345
345
346
347
343
340
348
351
348
346
350
351
348
344
346
346
345
344
349
351
347
340
340
344
345
342
344
349
346
339
339
344
346
342
341
347
345
340
335
339
343
341
336
339
343
342
335
337
341
344
340
339
340
343
340
339
345
345
340
334
339
342
340
336
340
340
338
335
340
343
339
332
335
337
334
328
330
336
343
342
338
341
343
340
336
340
343
339
336
342
344
341
337
339
338
332
323
326
334
337
335
345
367
390
403
410
416
419
411
396
385
368
348
334
333
334
330
323
326
327
325
319
320
324
324
318
317
323
326
318
312
318
325
321
316
318
320
319
312
312
314
313
310
312
312
312
309
310
311
306
297
295
300
301
296
293
298
299
297
295
300
304
304
303
311
319
323
321
327
334
337
335
337
342
342
339
339
344
347
344
342
346
344
340
341
346
349
347
342
344
346
346
341
346
349
347
340
341
344
345
341
341
343
342
338
340
344
345
343
339
343
342
340
334
337
339
339
334
338
340
339
335
337
342
342
334
333
338
342
339
335
337
339
337
332
337
342
340
333
335
337
339
335
335
337
337
334
336
338
336
332
331
335
337
333
328
329
329
328
325
332
336
333
328
333
337
336
329
331
336
337
332
332
337
340
336
333
334
336
332
326
326
326
324
320
324
331
342
359
390
411
414
413
414
408
392
370
354
348
342
330
323
324
324
319
314
318
321
318
310
315
319
316
311
315
316
315
308
311
314
314
309
310
313
311
303
301
304
304
302
298
302
304
299
293
294
295
290
283
284
287
286
280
284
289
291
288
292
298
304
305
308
317
323
323
323
332
338
337
333
337
339
340
338
343
346
344
339
341
346
348
340
336
342
345
339
337
339
342
341
341
349
351
345
343
345
348
351
337
330
339
338
337
340
354
367
348
340
335
334
343
344
331
324
319
322
328
330
331
327
326
325
321
315
322
324
325
320
320
326
328
319
325
334
336
330
323
328
332
327
323
333
327
324
326
340
341
336
325
327
327
323
319
324
335
342
335
331
333
329
319
321
325
334
335
326
331
339
346
342
342
346
341
323
328
339
345
334
324
325
342
334
313
319
326
318
312
334
347
346
359
398
427
428
406
408
415
394
354
349
349
338
311
312
329
334
316
307
325
332
314
300
317
320
314
295
310
325
322
295
304
321
316
293
300
313
313
289
290
302
308
288
279
299
305
290
282
306
298
271
256
285
296
282
258
281
299
299
272
288
310
317
293
297
320
334
316
311
337
347
335
328
355
369
350
319
337
352
343
318
342
362
357
326
344
371
370
330
330
352
354
331
329
358
366
346
325
350
361
338
306
339
359
352
321
338
353
351
321
334
354
357
323
328
354
357
328
322
350
356
331
313
344
356
338
309
333
351
343
314
336
355
353
321
335
352
350
322
325
351
350
318
319
349
352
324
305
341
360
343
309
327
343
338
309
329
351
351
318
332
358
355
316
317
349
363
330
317
343
353
337
321
346
352
330
296
325
353
341
297
319
357
392
388
414
443
448
403
391
404
394
351
328
355
361
325
292
320
342
329
292
316
339
335
297
311
329
326
292
306
330
334
300
296
320
329
302
288
319
331
306
280
309
326
310
273
293
313
307
267
281
303
302
262
271
298
300
266
271
306
316
288
279
316
338
324
297
322
344
338
310
338
359
353
321
340
361
363
330
338
363
366
334
332
360
371
346
331
358
371
351
325
351
362
345
315
340
361
354
317
335
359
363
328
335
359
361
326
328
359
367
335
319
348
359
339
321
350
360
344
314
340
358
353
316
333
356
360
327
327
348
356
326
324
355
362
331
312
341
349
332
316
344
356
346
317
338
353
349
349
352
358
352
351
351
354
348
350
354
355
346
349
353
355
349
340
337
344
340
331
332
348
372
395
411
425
437
430
419
402
388
367
361
355
350
339
335
336
339
333
328
328
334
332
324
322
327
331
323
323
327
331
319
315
322
329
320
314
314
319
314
309
310
313
306
299
295
298
298
292
287
291
292
290
292
292
291
285
290
301
314
313
316
320
330
330
338
342
349
348
347
350
356
357
357
362
368
369
364
368
372
378
371
370
373
378
370
371
374
376
368
361
363
373
372
366
365
369
366
362
364
365
365
359
360
362
363
356
355
357
364
361
360
360
363
359
358
359
362
356
348
353
363
357
348
347
350
356
353
357
360
362
353
353
358
363
356
354
357
364
359
355
355
360
356
356
360
361
350
340
345
349
348
335
345
376
408
417
421
432
439
423
408
392
384
368
358
355
355
343
339
340
343
342
334
332
336
336
330
330
331
336
328
330
335
333
325
321
320
327
321
319
324
326
319
312
312
313
310
301
299
301
299
293
288
288
290
287
291
298
305
299
300
307
318
317
320
329
342
341
341
352
360
356
351
355
362
362
359
362
366
368
359
359
368
373
364
364
364
368
363
362
362
368
366
361
360
363
357
351
353
358
361
356
358
360
361
351
353
356
360
352
355
357
360
356
355
355
359
356
355
355
360
357
352
357
363
362
355
355
355
355
350
350
347
349
343
346
348
354
349
350
355
361
356
351
351
357
354
352
353
356
355
347
350
355
358
351
347
344
347
343
340
339
344
347
368
393
413
422
428
430
420
401
384
373
364
355
343
341
344
342
335
335
335
337
331
330
330
335
326
322
322
328
319
318
321
332
326
318
319
326
322
311
313
317
317
305
304
305
307
299
296
297
298
289
287
285
291
285
286
293
300
301
302
306
316
322
320
327
337
344
341
346
352
358
352
354
357
361
353
354
356
361
352
351
359
365
360
357
359
362
357
351
357
361
363
356
355
355
356
348
350
355
357
351
350
351
355
347
343
348
354
348
348
348
352
352
347
349
352
352
347
353
356
358
349
347
351
355
347
345
346
352
348
344
344
347
344
343
348
350
347
340
340
344
344
338
346
353
352
345
344
345
351
341
338
340
350
349
349
348
352
349
342
342
347
339
330
334
337
337
336
342
360
385
396
409
424
434
421
408
392
385
366
347
340
340
334
330
329
330
329
325
328
327
324
319
325
328
331
321
316
315
323
318
315
315
320
316
314
314
317
312
305
305
311
305
294
290
292
292
286
284
284
287
279
278
287
294
288
288
294
304
306
309
318
329
331
328
336
346
344
337
343
351
352
348
349
354
358
349
350
352
356
351
348
349
356
350
348
349
356
355
349
350
354
349
343
345
349
355
351
349
347
346
338
340
342
349
343
341
341
348
344
342
343
345
339
342
347
352
349
346
346
350
350
342
343
346
344
334
336
343
348
342
345
347
350
340
338
345
349
342
338
336
334
335
334
334
333
333
334
337
340
345
341
339
339
346
343
344
341
347
342
338
341
345
342
340
339
339
336
326
325
330
330
328
338
359
391
398
410
427
434
414
398
385
377
355
339
333
333
328
323
321
323
324
320
321
328
327
315
312
316
320
313
311
312
313
308
308
309
313
309
304
303
303
297
298
303
307
298
288
284
286
289
281
279
283
284
275
275
278
282
279
283
289
301
302
304
306
319
325
330
333
341
341
337
339
349
350
347
349
354
354
346
346
347
353
346
348
350
358
350
346
346
353
351
345
344
350
348
343
345
348
348
341
340
342
345
344
344
345
349
340
341
345
353
346
342
346
353
352
346
341
347
346
344
346
352
352
343
345
348
348
342
345
350
354
347
344
345
349
341
341
339
343
340
339
337
337
333
330
336
343
339
332
334
339
345
342
343
347
349
337
335
342
348
338
335
342
349
341
336
333
338
331
328
329
331
331
322
325
345
376
394
411
427
435
419
402
387
380
358
341
333
334
328
324
324
327
323
314
314
318
316
311
312
313
312
309
310
315
317
307
305
307
311
299
299
301
303
297
292
295
298
293
284
285
285
282
275
275
277
275
270
273
273
278
274
274
281
295
293
291
297
314
319
321
326
336
340
337
338
341
342
337
343
348
350
346
344
342
348
345
345
344
346
341
341
342
348
343
338
338
342
339
333
336
343
346
337
334
336
339
334
334
337
341
331
330
334
342
339
337
338
342
340
333
331
336
332
334
339
343
338
329
334
339
339
331
332
338
342
332
329
334
339
331
329
333
339
336
330
325
326
325
322
324
330
334
332
334
338
338
331
331
335
340
334
329
331
339
334
328
329
338
332
324
325
330
324
315
313
318
330
350
379
397
414
419
415
400
384
364
354
346
343
328
319
316
324
321
312
307
317
318
315
316
320
316
306
307
313
314
306
307
308
312
301
300
304
306
295
294
296
301
293
290
290
293
286
278
274
279
280
270
268
273
277
273
274
279
287
283
290
300
310
309
313
321
332
329
328
336
341
342
341
345
349
347
342
345
349
349
341
344
346
348
343
344
343
347
339
338
340
346
340
336
337
344
338
330
332
341
342
335
333
337
339
331
332
332
337
331
332
336
341
330
331
335
342
338
333
332
335
336
332
334
335
335
329
330
332
332
326
326
327
331
323
323
325
331
325
327
333
337
333
327
328
336
334
331
331
333
332
328
331
333
337
332
329
326
327
317
321
326
324
313
322
345
379
393
402
413
420
403
381
365
357
345
329
328
329
326
316
316
319
323
315
308
305
312
306
304
306
312
306
302
302
310
308
299
298
305
302
297
299
299
299
289
289
288
290
282
275
275
278
273
270
268
274
271
268
270
275
273
276
283
296
302
297
301
314
320
318
323
329
335
331
334
341
345
338
337
341
346
345
347
350
350
342
336
338
347
340
335
339
344
349
344
342
342
344
336
338
342
346
333
331
333
344
338
336
341
342
336
332
336
345
346
337
335
341
343
334
334
336
339
337
340
344
348
338
337
336
340
337
337
334
339
337
336
336
341
339
330
329
332
333
332
333
337
340
330
333
339
347
340
338
336
339
334
335
342
344
336
331
333
340
337
325
321
326
327
320
323
336
359
379
399
414
426
418
405
391
382
361
342
334
332
329
325
323
325
323
316
314
319
321
313
314
317
318
309
308
312
320
312
307
307
315
308
303
304
309
303
297
302
306
300
291
291
294
291
281
280
282
288
278
275
279
285
281
284
289
299
299
303
308
314
315
319
327
335
337
334
334
343
346
340
343
347
346
344
347
351
356
348
348
349
351
345
343
345
352
347
345
348
351
346
335
338
342
345
340
340
342
345
338
337
339
346
339
336
336
341
338
334
335
345
344
340
339
342
339
333
333
339
346
340
340
342
341
332
332
336
344
335
333
332
336
331
332
333
336
328
325
330
338
338
332
336
343
339
329
331
337
342
333
332
336
344
336
335
335
336
323
319
325
330
321
317
321
345
378
397
411
422
423
407
394
383
371
350
339
329
327
318
319
322
326
318
313
314
321
318
312
308
310
311
309
309
314
312
306
307
306
309
305
304
305
309
300
298
302
304
293
284
283
290
286
278
272
277
278
277
279
281
281
275
281
290
297
296
305
314
325
321
324
330
344
341
339
343
350
346
344
349
359
355
349
353
358
356
351
353
357
357
353
354
357
359
352
349
351
356
349
346
348
353
347
344
344
351
352
344
345
350
346
340
346
352
352
341
345
353
357
346
345
350
351
342
342
347
355
348
339
344
355
353
347
341
343
346
345
343
344
343
334
334
337
342
338
342
347
352
346
341
344
353
348
340
342
349
345
342
345
345
346
343
342
340
337
331
332
333
336
332
348
378
406
411
423
433
434
419
396
378
366
355
340
335
337
334
327
328
331
330
321
322
324
324
317
318
320
324
317
312
315
322
313
307
307
314
315
309
308
310
308
300
299
302
303
289
282
284
288
281
279
278
285
281
276
275
280
282
289
297
308
309
307
314
325
328
326
332
340
344
340
343
349
355
349
346
346
353
348
347
348
355
349
347
350
353
347
338
340
347
348
344
344
348
347
341
340
342
347
341
340
338
341
335
340
344
346
341
340
342
342
339
340
345
349
346
341
341
346
347
341
343
345
351
339
338
343
349
339
336
336
337
330
329
332
334
334
334
338
346
343
338
336
339
341
334
335
342
344
340
338
339
344
334
331
329
333
330
327
323
323
320
322
347
382
405
410
421
431
425
399
381
368
358
341
330
324
329
319
313
316
323
320
315
314
316
313
308
311
311
310
306
309
311
312
302
300
305
307
296
292
293
303
298
293
290
293
287
279
275
278
274
268
269
274
271
266
267
269
273
273
275
282
296
296
303
315
324
320
323
330
336
333
335
337
344
344
340
343
350
346
337
338
345
348
342
344
347
349
344
344
346
347
340
341
338
340
336
333
334
336
332
330
334
339
340
338
338
339
339
332
334
338
341
336
337
336
337
331
334
338
338
329
328
333
341
335
325
327
331
331
330
332
336
340
333
333
335
340
336
337
339
344
336
335
336
344
338
333
335
338
328
319
321
329
328
318
315
332
363
385
400
419
435
424
408
388
374
353
343
336
331
324
322
321
326
320
313
312
313
316
312
313
316
315
310
309
311
312
306
308
308
308
301
302
303
307
301
292
289
296
291
286
287
287
280
271
271
273
275
270
269
272
277
272
277
281
292
291
294
305
321
321
320
325
338
339
333
337
349
350
341
344
353
355
345
344
345
349
345
346
351
354
345
342
342
353
348
347
348
347
343
338
341
345
340
335
338
341
343
339
338
338
340
336
338
340
343
335
338
341
347
339
335
335
342
340
335
333
335
335
331
332
338
341
338
341
344
348
340
337
336
342
336
341
345
348
340
335
337
346
342
334
330
333
335
328
327
330
333
349
387
415
428
427
426
414
400
375
361
353
348
333
326
327
330
324
315
317
322
319
312
312
318
319
307
305
311
311
307
308
310
314
303
304
310
310
299
294
295
300
293
288
289
295
290
276
271
275
275
269
270
274
279
271
271
277
288
290
291
298
310
318
331
338
333
312
304
323
337
335
338
345
352
357
360
366
366
355
341
339
347
346
334
341
355
354
346
359
367
373
359
334
315
328
349
346
339
341
338
332
347
352
336
327
333
345
347
334
332
332
335
330
332
347
364
348
327
324
333
336
346
352
345
325
323
327
335
343
343
350
340
333
334
342
357
369
354
333
330
334
327
333
343
346
338
332
332
334
325
322
329
326
327
326
345
372
385
400
423
432
425
406
381
367
346
321
319
324
323
321
320
320
322
315
309
312
322
322
318
327
332
316
302
314
312
296
282
295
315
308
290
298
308
311
298
299
304
291
279
280
289
280
259
261
268
264
256
270
292
287
277
284
297
293
286
294
320
325
315
309
323
335
334
319
328
340
338
328
339
353
357
338
339
352
356
350
343
357
361
339
326
337
341
326
325
352
359
339
324
342
351
344
321
332
341
339
320
337
349
343
315
324
344
341
314
316
340
353
336
316
329
340
328
316
340
341
319
302
328
343
337
315
328
338
331
305
319
337
339
316
317
338
338
318
314
342
346
323
313
336
344
332
308
330
345
332
298
311
326
324
294
307
341
371
373
390
426
438
409
384
391
382
346
314
329
336
323
304
321
320
308
290
310
322
318
296
313
331
320
285
286
306
307
284
293
324
320
291
274
302
314
297
270
287
295
